Timestamp,EMG Value,massage_speed,massage_duration,relaxment_level
0.000991583,0,1,30,1
0.011080265,1808,1,30,1
0.021075487,0,1,30,1
0.031070948,1691,1,30,1
0.041073084,0,1,30,1
0.051072598,1808,1,30,1
0.061072588,0,1,30,1
0.071075201,1575,1,30,1
0.081073284,494,1,30,1
0.091070414,1360,1,30,1
0.101072311,959,1,30,1
0.11107111,1264,1,30,1
0.121072531,0,1,30,1
0.131074429,979,1,30,1
0.141071081,965,1,30,1
0.151072979,1046,1,30,1
0.1610744,0,1,30,1
0.171071291,1104,1,30,1
0.181077957,0,1,30,1
0.191071272,1040,1,30,1
0.20700264,0,1,30,1
0.217387438,1017,1,30,1
0.225391388,0,1,30,1
0.237114429,986,1,30,1
0.24515295,0,1,30,1
0.24985528,1041,1,30,1
0.259870291,0,1,30,1
0.26987195,1022,1,30,1
0.279874563,0,1,30,1
0.289870262,926,1,30,1
0.299892664,0,1,30,1
0.309870243,941,1,30,1
0.319893837,0,1,30,1
0.329869747,927,1,30,1
0.339870214,0,1,30,1
0.349870682,912,1,30,1
0.361161232,0,1,30,1
0.376931667,912,1,30,1
0.37796545,2610,1,30,1
0.387969494,884,1,30,1
0.397969723,0,1,30,1
0.418457508,910,1,30,1
0.427134275,0,1,30,1
0.433391333,897,1,30,1
0.443427324,797,1,30,1
0.449751854,870,1,30,1
0.466516256,2480,1,30,1
0.476526499,874,1,30,1
0.479614735,0,1,30,1
0.489714861,843,1,30,1
0.499743938,0,1,30,1
0.517011166,849,1,30,1
0.518016577,2512,1,30,1
0.535319805,829,1,30,1
0.54365778,2634,1,30,1
0.556411028,848,1,30,1
0.566640854,2640,1,30,1
0.576766729,798,1,30,1
0.587064743,2557,1,30,1
0.594802618,807,1,30,1
0.603611231,2634,1,30,1
0.617079735,789,1,30,1
0.626801491,2559,1,30,1
0.63665843,777,1,30,1
0.645618916,2531,1,30,1
0.657306671,743,1,30,1
0.667221785,2512,1,30,1
0.671531677,746,1,30,1
0.686854601,2547,1,30,1
0.696071863,706,1,30,1
0.702255487,2219,1,30,1
0.716590643,912,1,30,1
0.726261377,2091,1,30,1
0.734588146,718,1,30,1
0.747513294,553,1,30,1
0.756830692,745,1,30,1
0.766717911,1808,1,30,1
0.775733709,753,1,30,1
0.783176184,1275,1,30,1
0.793777466,710,1,30,1
0.801484585,2270,1,30,1
0.816834211,690,1,30,1
0.82695055,2582,1,30,1
0.836460114,720,1,30,1
0.846842289,2222,1,30,1
0.850690126,666,1,30,1
0.867426395,2356,1,30,1
0.87543416,591,1,30,1
0.886113882,2241,1,30,1
0.8929286,455,1,30,1
0.901256084,2033,1,30,1
0.916611671,630,1,30,1
0.926622629,1363,1,30,1
0.936621189,643,1,30,1
0.940567493,1947,1,30,1
0.956290483,636,1,30,1
0.964885473,2015,1,30,1
0.971545219,592,1,30,1
0.987256527,1901,1,30,1
0.997303247,604,1,30,1
1.006373644,1648,1,30,1
1.017076254,1627,1,30,1
1.024767399,1904,1,30,1
1.036763906,573,1,30,1
1.041784286,0,1,30,1
1.056309938,1895,1,30,1
1.066395998,1503,1,30,1
1.077094555,1387,1,30,1
1.08663702,365,1,30,1
1.097266436,1185,1,30,1
1.106835842,2352,1,30,1
1.116488457,170,1,30,1
1.126254797,0,1,30,1
1.136516094,1853,1,30,1
1.147130966,1214,1,30,1
1.149719,1390,1,30,1
1.167122602,1379,1,30,1
1.176376581,1489,1,30,1
1.186430216,1359,1,30,1
1.194847107,1681,1,30,1
1.206440926,1497,1,30,1
1.215294361,1476,1,30,1
1.226587534,1042,1,30,1
1.236934662,339,1,30,1
1.247066021,1654,1,30,1
1.256816626,1744,1,30,1
1.266895771,1712,1,30,1
1.27651,1882,1,30,1
1.286284447,1680,1,30,1
1.296387672,1168,1,30,1
1.306778669,1516,1,30,1
1.316435814,1424,1,30,1
1.326809168,1478,1,30,1
1.336447239,1616,1,30,1
1.346630335,1338,1,30,1
1.356636047,2031,1,30,1
1.366274834,1506,1,30,1
1.374274969,1895,1,30,1
1.386357307,1482,1,30,1
1.396105289,1984,1,30,1
1.407110929,1520,1,30,1
1.416439295,1921,1,30,1
1.423484564,971,1,30,1
1.437176704,1895,1,30,1
1.446525574,389,1,30,1
1.456508636,1505,1,30,1
1.465762377,2559,1,30,1
1.47745347,1178,1,30,1
1.485987425,1493,1,30,1
1.496447325,1359,1,30,1
1.506911039,2413,1,30,1
1.516688347,1402,1,30,1
1.526881695,1987,1,30,1
1.536334038,1325,1,30,1
1.54720521,1426,1,30,1
1.556492805,1411,1,30,1
1.56525445,1366,1,30,1
1.577217817,1488,1,30,1
1.587021112,1379,1,30,1
1.592880487,1659,1,30,1
1.606474161,1237,1,30,1
1.616348743,1549,1,30,1
1.625278473,1616,1,30,1
1.637045145,1291,1,30,1
1.644784451,1551,1,30,1
1.6574049,1072,1,30,1
1.666600704,1390,1,30,1
1.676967621,857,1,30,1
1.686798096,1268,1,30,1
1.693966389,673,1,30,1
1.706262589,1355,1,30,1
1.716693163,1135,1,30,1
1.72699523,1328,1,30,1
1.736753702,1199,1,30,1
1.745771646,1301,1,30,1
1.75639677,1040,1,30,1
1.767172337,1285,1,30,1
1.776480436,736,1,30,1
1.78618145,1314,1,30,1
1.793916702,743,1,30,1
1.807026386,1466,1,30,1
1.815242529,711,1,30,1
1.827258348,1725,1,30,1
1.837332249,468,1,30,1
1.843048573,2345,1,30,1
1.856600523,464,1,30,1
1.866768837,1011,1,30,1
1.876647949,501,1,30,1
1.886149645,0,1,30,1
1.896408796,413,1,30,1
1.906774998,0,1,30,1
1.916577101,393,1,30,1
1.926656961,0,1,30,1
1.936778545,386,1,30,1
1.94715929,0,1,30,1
1.956885576,464,1,30,1
1.966543436,0,1,30,1
1.977252245,401,1,30,1
1.986987591,0,1,30,1
1.995284557,388,1,30,1
2.006934881,0,1,30,1
2.016287804,400,1,30,1
2.027123928,0,1,30,1
2.033965826,250,1,30,1
2.04198122,0,1,30,1
2.053523302,336,1,30,1
2.066941023,0,1,30,1
2.077146053,348,1,30,1
2.083587646,0,1,30,1
2.091630459,366,1,30,1
2.101799726,0,1,30,1
2.11594677,368,1,30,1
2.12712574,0,1,30,1
2.137120962,312,1,30,1
2.146179199,0,1,30,1
2.156795025,324,1,30,1
2.165171146,0,1,30,1
2.176900148,992,1,30,1
2.187093735,400,1,30,1
2.194647312,1136,1,30,1
2.206677437,557,1,30,1
2.215115309,1099,1,30,1
2.22658515,411,1,30,1
2.237169981,991,1,30,1
2.246314764,333,1,30,1
2.250289679,962,1,30,1
2.267169476,177,1,30,1
2.276179075,880,1,30,1
2.283676624,0,1,30,1
2.292856455,716,1,30,1
2.300131083,0,1,30,1
2.316921473,537,1,30,1
2.327049494,0,1,30,1
2.336432934,341,1,30,1
2.34409976,0,1,30,1
2.356732368,434,1,30,1
2.366251945,0,1,30,1
2.377120018,649,1,30,1
2.387114525,0,1,30,1
2.390276194,511,1,30,1
2.406277418,0,1,30,1
2.417165756,500,1,30,1
2.426460505,4095,1,30,1
2.436924219,1563,1,30,1
2.444603205,4095,1,30,1
2.452470541,2115,1,30,1
2.466836452,4095,1,30,1
2.476320267,2160,1,30,1
2.484276295,4095,1,30,1
2.493362188,1966,1,30,1
2.499445438,4095,1,30,1
2.516772747,1975,1,30,1
2.52472806,4095,1,30,1
2.536794901,1974,1,30,1
2.546896219,4095,1,30,1
2.556857824,1833,1,30,1
2.566849232,4095,1,30,1
2.577131033,1977,1,30,1
2.586675882,4095,1,30,1
2.594789267,1827,1,30,1
2.607363224,4095,1,30,1
2.616840124,1897,1,30,1
2.626669884,4095,1,30,1
2.637228966,1869,1,30,1
2.645234585,4095,1,30,1
2.651888371,1791,1,30,1
2.667249203,4095,1,30,1
2.675253391,2032,1,30,1
2.683387995,4095,1,30,1
2.691465616,1737,1,30,1
2.700287819,4095,1,30,1
2.716577053,1899,1,30,1
2.727707863,4095,1,30,1
2.733349323,1926,1,30,1
2.743785381,4095,1,30,1
2.756568909,1858,1,30,1
2.766363859,4095,1,30,1
2.777556181,2064,1,30,1
2.787401676,4095,1,30,1
2.796976328,1790,1,30,1
2.801306009,4095,1,30,1
2.816670418,1990,1,30,1
2.82569623,4095,1,30,1
2.835042238,2256,1,30,1
2.845163107,4095,1,30,1
2.851314068,358,1,30,1
2.865974188,4095,1,30,1
2.874531984,368,1,30,1
2.883310318,4095,1,30,1
2.891324997,338,1,30,1
2.900863647,4095,1,30,1
2.917416096,269,1,30,1
2.921675682,2043,1,30,1
2.93732214,153,1,30,1
2.945035219,0,1,30,1
2.955083132,128,1,30,1
2.966930866,0,1,30,1
2.977187395,112,1,30,1
2.983440876,4095,1,30,1
2.990766048,662,1,30,1
3.006146193,4095,1,30,1
3.015730858,955,1,30,1
3.021468163,4095,1,30,1
3.036904097,1233,1,30,1
3.04551959,4095,1,30,1
3.056906939,1471,1,30,1
3.067106009,4095,1,30,1
3.076382637,1745,1,30,1
3.086549044,3760,1,30,1
3.097429037,735,1,30,1
3.106447458,0,1,30,1
3.117159605,1615,1,30,1
3.126282692,1397,1,30,1
3.136893988,2496,1,30,1
3.144394636,1471,1,30,1
3.156949043,2651,1,30,1
3.167402029,1497,1,30,1
3.176419258,2439,1,30,1
3.186435223,1648,1,30,1
3.196410418,239,1,30,1
3.206929922,1520,1,30,1
3.216686726,240,1,30,1
3.226916552,1439,1,30,1
3.237399817,134,1,30,1
3.244172573,1229,1,30,1
3.256872416,3050,1,30,1
3.266405821,951,1,30,1
3.27744627,3057,1,30,1
3.286950111,1191,1,30,1
3.296841621,3650,1,30,1
3.3066504,775,1,30,1
3.317172766,2945,1,30,1
3.326978445,48,1,30,1
3.337147713,2719,1,30,1
3.346482992,39,1,30,1
3.356932163,1575,1,30,1
3.36644268,429,1,30,1
3.376556158,1174,1,30,1
3.386309862,421,1,30,1
3.39665103,436,1,30,1
3.407006264,150,1,30,1
3.416630507,749,1,30,1
3.427073717,1115,1,30,1
3.437253714,2439,1,30,1
3.446589231,2105,1,30,1
3.456907749,38,1,30,1
3.466711521,1807,1,30,1
3.477171183,4095,1,30,1
3.486281395,1782,1,30,1
3.496299505,4095,1,30,1
3.506946325,1863,1,30,1
3.514915228,75,1,30,1
3.527215004,1968,1,30,1
3.537173748,0,1,30,1
3.545727015,1941,1,30,1
3.557155132,0,1,30,1
3.567148209,2045,1,30,1
3.576514721,0,1,30,1
3.587150097,2041,1,30,1
3.597163916,0,1,30,1
3.606594086,2047,1,30,1
3.61682868,0,1,30,1
3.623320341,1344,1,30,1
3.635842323,0,1,30,1
3.643399954,435,1,30,1
3.651119709,0,1,30,1
3.666029215,1750,1,30,1
3.675255299,0,1,30,1
3.687035561,2354,1,30,1
3.697188377,0,1,30,1
3.704864025,1981,1,30,1
3.717378616,2645,1,30,1
3.727071524,1929,1,30,1
3.736980438,2807,1,30,1
3.744624615,1984,1,30,1
3.756187439,2852,1,30,1
3.767095804,1792,1,30,1
3.775138855,2448,1,30,1
3.786747456,1823,1,30,1
3.796408415,2589,1,30,1
3.806396484,1810,1,30,1
3.816546917,2352,1,30,1
3.827421427,1812,1,30,1
3.836487293,2775,1,30,1
3.843929291,1757,1,30,1
3.857112885,2832,1,30,1
3.866878271,1841,1,30,1
3.874882698,2753,1,30,1
3.886960506,2578,1,30,1
3.891129732,554,1,30,1
3.907155037,1933,1,30,1
3.917178154,1173,1,30,1
3.926753044,1405,1,30,1
3.936757565,0,1,30,1
3.941150188,1719,1,30,1
3.957082272,2394,1,30,1
3.96701932,1713,1,30,1
3.977161884,2124,1,30,1
3.98679328,1811,1,30,1
3.992647886,2360,1,30,1
4.005914927,1562,1,30,1
4.016578436,1425,1,30,1
4.02685976,884,1,30,1
4.037005186,1725,1,30,1
4.046175957,1723,1,30,1
4.056954145,2137,1,30,1
4.066250801,1616,1,30,1
4.075810194,2639,1,30,1
4.086927414,1641,1,30,1
4.097307205,2421,1,30,1
4.106451511,1675,1,30,1
4.117127657,2352,1,30,1
4.126944304,1686,1,30,1
4.136816978,2304,1,30,1
4.141982794,1721,1,30,1
4.156862259,2854,1,30,1
4.167076111,1615,1,30,1
4.175806761,2762,1,30,1
4.186692476,1616,1,30,1
4.189681292,2143,1,30,1
4.206709862,1638,1,30,1
4.217024326,2383,1,30,1
4.227276802,1609,1,30,1
4.236253977,2251,1,30,1
4.245665073,1573,1,30,1
4.256834269,1989,1,30,1
4.266965628,1094,1,30,1
4.275579929,1237,1,30,1
4.28627944,1257,1,30,1
4.291533947,800,1,30,1
4.306572199,1629,1,30,1
4.316945791,1143,1,30,1
4.326942444,114,1,30,1
4.337041378,2118,1,30,1
4.346898556,1520,1,30,1
4.356998444,1453,1,30,1
4.366503716,2141,1,30,1
4.37679863,2499,1,30,1
4.387156248,511,1,30,1
4.395962238,2679,1,30,1
4.406624556,1409,1,30,1
4.417147636,1441,1,30,1
4.426790237,1703,1,30,1
4.436809063,1415,1,30,1
4.446928024,1456,1,30,1
4.456590414,1186,1,30,1
4.466886044,1230,1,30,1
4.476837158,1776,1,30,1
4.484071016,879,1,30,1
4.496139765,705,1,30,1
4.506479263,709,1,30,1
4.51658988,1057,1,30,1
4.526465893,1344,1,30,1
4.536711216,885,1,30,1
4.547269583,1862,1,30,1
4.556535244,1214,1,30,1
4.567005634,835,1,30,1
4.573343992,759,1,30,1
4.584137201,848,1,30,1
4.59215188,1250,1,30,1
4.606856585,1076,1,30,1
4.617005587,1241,1,30,1
4.625126362,1908,1,30,1
4.633569956,1941,1,30,1
4.647188902,1520,1,30,1
4.657191515,1599,1,30,1
4.667177439,1594,1,30,1
4.6761868,1554,1,30,1
4.686545134,1590,1,30,1
4.694052935,1767,1,30,1
4.707028389,1545,1,30,1
4.717177153,2411,1,30,1
4.725227594,1316,1,30,1
4.737277985,1201,1,30,1
4.741683006,1296,1,30,1
4.756255388,1225,1,30,1
4.765828848,1141,1,30,1
4.776607752,1197,1,30,1
4.786504507,1138,1,30,1
4.796092987,1197,1,30,1
4.803800821,1154,1,30,1
4.817020893,443,1,30,1
4.826791525,903,1,30,1
4.836546183,1535,1,30,1
4.844005585,1347,1,30,1
4.856521606,958,1,30,1
4.864624977,908,1,30,1
4.877300978,719,1,30,1
4.886838675,757,1,30,1
4.895111084,833,1,30,1
4.906771183,212,1,30,1
4.916247606,1040,1,30,1
4.925303459,1078,1,30,1
4.937034369,1945,1,30,1
4.945041656,1003,1,30,1
4.951028824,876,1,30,1
4.966378212,1161,1,30,1
4.974392653,962,1,30,1
4.987294436,850,1,30,1
4.995300531,863,1,30,1
5.001142979,958,1,30,1
5.016857386,852,1,30,1
5.026005983,930,1,30,1
5.037065744,838,1,30,1
5.045074463,907,1,30,1
5.04985404,832,1,30,1
5.066471577,891,1,30,1
5.070395947,809,1,30,1
5.085596323,898,1,30,1
5.096464872,799,1,30,1
5.101357222,1035,1,30,1
5.115700006,822,1,30,1
5.124747276,548,1,30,1
5.13456893,843,1,30,1
5.142675638,1281,1,30,1
5.149621725,1178,1,30,1
5.16536212,1434,1,30,1
5.174241543,710,1,30,1
5.187302828,1383,1,30,1
5.19532609,720,1,30,1
5.201118469,1431,1,30,1
5.216509104,1066,1,30,1
5.22466135,1205,1,30,1
5.233741045,1072,1,30,1
5.241757393,1161,1,30,1
5.249843121,937,1,30,1
5.26662159,960,1,30,1
5.273045778,845,1,30,1
5.286994457,641,1,30,1
5.296438217,635,1,30,1
5.301736116,814,1,30,1
5.316538572,685,1,30,1
5.326576471,720,1,30,1
5.333785295,371,1,30,1
5.346780062,1275,1,30,1
5.355422497,767,1,30,1
5.367434502,720,1,30,1
5.377790213,1248,1,30,1
5.387135983,163,1,30,1
5.395585775,176,1,30,1
5.406664371,1319,1,30,1
5.416574478,479,1,30,1
5.42744422,240,1,30,1
5.437037468,0,1,30,1
5.446547508,621,1,30,1
5.457110405,244,1,30,1
5.466483355,1599,1,30,1
5.476925611,933,1,30,1
5.48699069,62,1,30,1
5.495841026,208,1,30,1
5.506775379,1123,1,30,1
5.516597748,418,1,30,1
5.526785374,210,1,30,1
5.537107229,0,1,30,1
5.547228336,708,1,30,1
5.557010412,528,1,30,1
5.566657782,1708,1,30,1
5.577208042,752,1,30,1
5.586933851,597,1,30,1
5.596500158,164,1,30,1
5.599964619,1153,1,30,1
5.616384983,554,1,30,1
5.627267838,573,1,30,1
5.636703491,647,1,30,1
5.647435904,214,1,30,1
5.657428026,171,1,30,1
5.667155266,1591,1,30,1
5.677245617,702,1,30,1
5.684426308,2370,1,30,1
5.696707487,80,1,30,1
5.706431389,1005,1,30,1
5.717215538,357,1,30,1
5.724042654,175,1,30,1
5.733120203,64,1,30,1
5.741206408,400,1,30,1
5.748855829,137,1,30,1
5.761347055,1360,1,30,1
5.771398067,646,1,30,1
5.781396627,2378,1,30,1
5.793437004,35,1,30,1
5.803447485,821,1,30,1
5.815903425,267,1,30,1
5.82595253,186,1,30,1
5.831605196,0,1,30,1
5.847028017,305,1,30,1
5.857293844,112,1,30,1
5.862352133,834,1,30,1
5.876673698,534,1,30,1
5.886825562,210,1,30,1
5.893063068,111,1,30,1
5.907095909,607,1,30,1
5.91554141,369,1,30,1
5.926944017,325,1,30,1
5.947783947,208,1,30,1
5.950759649,335,1,30,1
5.955510139,319,1,30,1
5.966994762,400,1,30,1
5.976172447,2359,1,30,1
5.986356497,1109,1,30,1
5.991629839,229,1,30,1
6.006468296,602,1,30,1
6.016779423,299,1,30,1
6.023474932,400,1,30,1
6.036760807,144,1,30,1
6.045212984,440,1,30,1
6.056512833,208,1,30,1
6.066817522,739,1,30,1
6.076229811,1610,1,30,1
6.086858988,85,1,30,1
6.092674732,0,1,30,1
6.106743574,632,1,30,1
6.116654873,505,1,30,1
6.124948502,253,1,30,1
6.137111425,403,1,30,1
6.146263361,350,1,30,1
6.1571033,804,1,30,1
6.166764021,298,1,30,1
6.175818443,976,1,30,1
6.186235905,265,1,30,1
6.191477776,746,1,30,1
6.206536293,336,1,30,1
6.216982365,2014,1,30,1
6.223368645,219,1,30,1
6.23667264,619,1,30,1
6.241628408,239,1,30,1
6.256954193,1334,1,30,1
6.267012596,241,1,30,1
6.27584219,1495,1,30,1
6.286300659,192,1,30,1
6.291690588,1197,1,30,1
6.306764841,362,1,30,1
6.317776203,1971,1,30,1
6.326883316,251,1,30,1
6.336243868,618,1,30,1
6.347142696,282,1,30,1
6.356816769,768,1,30,1
6.366764307,262,1,30,1
6.377101898,607,1,30,1
6.386914253,163,1,30,1
6.391970396,305,1,30,1
6.406697035,334,1,30,1
6.416553974,605,1,30,1
6.426131964,313,1,30,1
6.437151432,144,1,30,1
6.44371295,215,1,30,1
6.457071781,290,1,30,1
6.467218876,240,1,30,1
6.477177143,240,1,30,1
6.48699069,144,1,30,1
6.497721434,63,1,30,1
6.507120848,304,1,30,1
6.517156601,208,1,30,1
6.525034189,188,1,30,1
6.536897182,0,1,30,1
6.546846867,90,1,30,1
6.556700945,64,1,30,1
6.567159891,208,1,30,1
6.577181339,75,1,30,1
6.586352587,1629,1,30,1
6.590667725,2402,1,30,1
6.606399059,277,1,30,1
6.616662025,604,1,30,1
6.624526024,1110,1,30,1
6.636806488,688,1,30,1
6.6431849,505,1,30,1
6.656305313,0,1,30,1
6.667287588,141,1,30,1
6.675004482,528,1,30,1
6.686701775,548,1,30,1
6.692363977,0,1,30,1
6.707271099,1296,1,30,1
6.717005968,272,1,30,1
6.726186752,592,1,30,1
6.736904144,699,1,30,1
6.740847826,0,1,30,1
6.756961346,0,1,30,1
6.766798973,554,1,30,1
6.777179003,188,1,30,1
6.786494255,236,1,30,1
6.793174028,382,1,30,1
6.806637764,162,1,30,1
6.816686392,179,1,30,1
6.823414087,243,1,30,1
6.837043762,108,1,30,1
6.839264154,192,1,30,1
6.8514781,85,1,30,1
6.866985559,178,1,30,1
6.874484062,554,1,30,1
6.886600733,6,1,30,1
6.891686678,1746,1,30,1
6.907034159,1746,1,30,1
6.916693449,1835,1,30,1
6.92370224,4095,1,30,1
6.937074423,1360,1,30,1
6.947664261,4095,1,30,1
6.956866264,2583,1,30,1
6.966030836,4095,1,30,1
6.975167274,1264,1,30,1
6.986536264,4095,1,30,1
6.996637821,2209,1,30,1
7.007145166,4095,1,30,1
7.016944408,4095,1,30,1
7.023759842,2859,1,30,1
7.036715508,1723,1,30,1
7.047708988,4095,1,30,1
7.056999207,2122,1,30,1
7.067020178,4095,1,30,1
7.074743509,2301,1,30,1
7.087122679,4095,1,30,1
7.097760677,2412,1,30,1
7.106414318,4095,1,30,1
7.116428375,1632,1,30,1
7.123932362,4095,1,30,1
7.136294365,747,1,30,1
7.147576809,4095,1,30,1
7.156653404,347,1,30,1
7.166356802,4095,1,30,1
7.176129103,304,1,30,1
7.182500124,4095,1,30,1
7.196435452,274,1,30,1
7.205808401,4095,1,30,1
7.216879129,301,1,30,1
7.226544142,4095,1,30,1
7.236657143,257,1,30,1
7.247666836,4095,1,30,1
7.256421328,238,1,30,1
7.266576052,944,1,30,1
7.2758708,48,1,30,1
7.286635399,0,1,30,1
7.297180891,1442,1,30,1
7.306421518,796,1,30,1
7.316967249,801,1,30,1
7.321116447,821,1,30,1
7.336471081,1171,1,30,1
7.347636938,864,1,30,1
7.351779461,2017,1,30,1
7.367319345,1746,1,30,1
7.376438141,1854,1,30,1
7.387131453,1751,1,30,1
7.396752119,1883,1,30,1
7.405342102,208,1,30,1
7.415618658,192,1,30,1
7.420937538,80,1,30,1
7.437241793,0,1,30,1
7.447631836,80,1,30,1
7.451464176,2431,1,30,1
7.466825485,179,1,30,1
7.474768877,277,1,30,1
7.483841181,4095,1,30,1
7.496545792,273,1,30,1
7.505157471,4095,1,30,1
7.516039371,281,1,30,1
7.520662308,4095,1,30,1
7.535850525,211,1,30,1
7.5476017,4095,1,30,1
7.551205158,139,1,30,1
7.567171812,4095,1,30,1
7.575648069,62,1,30,1
7.583498478,4095,1,30,1
7.596768379,0,1,30,1
7.607186556,4095,1,30,1
7.617473841,148,1,30,1
7.620570421,4095,1,30,1
7.63654542,92,1,30,1
7.647571087,4095,1,30,1
7.657220602,989,1,30,1
7.666292667,3324,1,30,1
7.677008152,1391,1,30,1
7.687191725,4095,1,30,1
7.697582245,1694,1,30,1
7.706711531,3173,1,30,1
7.716689348,1326,1,30,1
7.72693491,4095,1,30,1
7.736447573,1775,1,30,1
7.747552395,2446,1,30,1
7.757252455,1893,1,30,1
7.767093897,2236,1,30,1
7.775007486,1971,1,30,1
7.786623001,1962,1,30,1
7.798762321,1712,1,30,1
7.806708097,1857,1,30,1
7.815085888,1085,1,30,1
7.82638073,1633,1,30,1
7.837352037,1946,1,30,1
7.847417593,1385,1,30,1
7.857428312,1622,1,30,1
7.866646528,1490,1,30,1
7.877426386,1731,1,30,1
7.886976242,1307,1,30,1
7.897503138,1562,1,30,1
7.906605721,1296,1,30,1
7.916491747,1733,1,30,1
7.927332878,1461,1,30,1
7.937165976,1695,1,30,1
7.947445631,1267,1,30,1
7.956833363,1697,1,30,1
7.966843605,1207,1,30,1
7.972177982,1616,1,30,1
7.986284018,1375,1,30,1
7.997489691,1597,1,30,1
8.006480694,1234,1,30,1
8.016562939,1695,1,30,1
8.027383327,1191,1,30,1
8.035294771,1407,1,30,1
8.047391415,1447,1,30,1
8.050639153,1171,1,30,1
8.066418171,1406,1,30,1
8.076446295,1678,1,30,1
8.087744236,1031,1,30,1
8.097622156,2475,1,30,1
8.107076168,1738,1,30,1
8.117132425,1631,1,30,1
8.126252174,1920,1,30,1
8.136851072,256,1,30,1
8.147418976,1488,1,30,1
8.157150984,1535,1,30,1
8.16647625,1502,1,30,1
8.172822952,1488,1,30,1
8.186667681,1280,1,30,1
8.197348118,2082,1,30,1
8.20539546,560,1,30,1
8.217409849,1548,1,30,1
8.226739168,1600,1,30,1
8.232831717,1173,1,30,1
8.246498823,624,1,30,1
8.257045746,976,1,30,1
8.266876221,769,1,30,1
8.271504164,1082,1,30,1
8.286957264,1597,1,30,1
8.297430038,1398,1,30,1
8.307273149,1488,1,30,1
8.317342043,1253,1,30,1
8.321014404,1042,1,30,1
8.336353779,1216,1,30,1
8.347461462,944,1,30,1
8.356769085,1330,1,30,1
8.366899729,864,1,30,1
8.372811079,1246,1,30,1
8.387319088,907,1,30,1
8.397451162,1500,1,30,1
8.407143116,1035,1,30,1
8.416778088,1702,1,30,1
8.426511288,1118,1,30,1
8.43645978,1635,1,30,1
8.447422743,1040,1,30,1
8.456623077,1686,1,30,1
8.466700315,1034,1,30,1
8.474093199,1602,1,30,1
8.487154722,1015,1,30,1
8.497513294,1595,1,30,1
8.506001949,1105,1,30,1
8.517036438,1427,1,30,1
8.525192976,1338,1,30,1
8.537169218,1675,1,30,1
8.549721003,1094,1,30,1
8.556992292,1553,1,30,1
8.567206383,1571,1,30,1
8.571939468,1630,1,30,1
8.586412191,1605,1,30,1
8.597402096,1653,1,30,1
8.60703063,1621,1,30,1
8.616863489,1546,1,30,1
8.625027657,1555,1,30,1
8.636588573,976,1,30,1
8.645812511,1543,1,30,1
8.655013084,1457,1,30,1
8.667137861,1462,1,30,1
8.675019026,1329,1,30,1
8.686972141,1531,1,30,1
8.697420359,903,1,30,1
8.706132889,1520,1,30,1
8.716369629,1397,1,30,1
8.723829508,1534,1,30,1
8.736334324,1456,1,30,1
8.74056077,1569,1,30,1
8.755968571,1377,1,30,1
8.766468287,1532,1,30,1
8.771477938,1314,1,30,1
8.786963701,1260,1,30,1
8.797405005,1083,1,30,1
8.804691792,847,1,30,1
8.816697836,1321,1,30,1
8.820680141,820,1,30,1
8.836939335,1855,1,30,1
8.84731245,1179,1,30,1
8.855930567,1635,1,30,1
8.86664772,1854,1,30,1
8.87716794,1485,1,30,1
8.886670589,2154,1,30,1
8.897348166,1430,1,30,1
8.905083418,2366,1,30,1
8.917173147,1458,1,30,1
8.924636364,1946,1,30,1
8.936900377,1809,1,30,1
8.947323799,391,1,30,1
8.955133677,1073,1,30,1
8.966671944,1435,1,30,1
8.970467091,2545,1,30,1
8.987082005,58,1,30,1
8.988282204,48,1,30,1
9.0050354,36,1,30,1
9.016485691,92,1,30,1
9.019916534,0,1,30,1
9.036715746,96,1,30,1
9.048407555,0,1,30,1
9.053362131,436,1,30,1
9.066608667,123,1,30,1
9.070722818,466,1,30,1
9.086278677,335,1,30,1
9.097165823,455,1,30,1
9.098869085,368,1,30,1
9.114714861,1979,1,30,1
9.127077818,1725,1,30,1
9.135073185,1055,1,30,1
9.147163391,1510,1,30,1
9.156709671,1203,1,30,1
9.166511536,1616,1,30,1
9.172467232,1153,1,30,1
9.187031031,1648,1,30,1
9.188028097,1168,1,30,1
9.204451561,1657,1,30,1
9.216614485,1174,1,30,1
9.224534035,1502,1,30,1
9.239122629,1274,1,30,1
9.240119696,1411,1,30,1
9.257266998,1217,1,30,1
9.267176151,1454,1,30,1
9.27424264,1245,1,30,1
9.286263704,1479,1,30,1
9.297261238,1255,1,30,1
9.307124138,1561,1,30,1
9.316712141,1178,1,30,1
9.326625347,1521,1,30,1
9.336920738,1209,1,30,1
9.347247839,1518,1,30,1
9.356495619,1191,1,30,1
9.36674118,1515,1,30,1
9.371021986,1159,1,30,1
9.386450052,1608,1,30,1
9.387450457,1136,1,30,1
9.404787302,1473,1,30,1
9.416817427,1170,1,30,1
9.420065165,1524,1,30,1
9.437436342,1125,1,30,1
9.447228909,1534,1,30,1
9.454387665,1136,1,30,1
9.46700573,1419,1,30,1
9.470593214,1151,1,30,1
9.48674202,1425,1,30,1
9.489035845,1194,1,30,1
9.504830599,1411,1,30,1
9.516555786,1136,1,30,1
9.5222857,1376,1,30,1
9.536804199,1012,1,30,1
9.544335604,1361,1,30,1
9.557414055,1089,1,30,1
9.5666821,1387,1,30,1
9.574061871,1075,1,30,1
9.586966991,1070,1,30,1
9.598269939,1030,1,30,1
9.604931355,1718,1,30,1
9.61624074,782,1,30,1
9.621887922,1688,1,30,1
9.637318373,621,1,30,1
9.637318373,1234,1,30,1
9.654047012,1821,1,30,1
9.666877985,1626,1,30,1
9.675412893,1531,1,30,1
9.686575651,1310,1,30,1
9.697182178,1039,1,30,1
9.705186367,1663,1,30,1
9.717050791,1232,1,30,1
9.721075296,1466,1,30,1
9.737115622,1229,1,30,1
9.747075558,1191,1,30,1
9.754347324,973,1,30,1
9.766368866,1526,1,30,1
9.773703814,865,1,30,1
9.786563873,1373,1,30,1
9.790244818,1185,1,30,1
9.80563283,1393,1,30,1
9.816609383,875,1,30,1
9.820401669,1330,1,30,1
9.83648634,891,1,30,1
9.837484121,1152,1,30,1
9.853310823,899,1,30,1
9.866875172,1131,1,30,1
9.871713161,1296,1,30,1
9.8865695,1142,1,30,1
9.887551069,847,1,30,1
9.905472755,1211,1,30,1
9.917008638,850,1,30,1
9.920199871,1078,1,30,1
9.936782598,766,1,30,1
9.948906898,1029,1,30,1
9.956864595,848,1,30,1
9.966548443,990,1,30,1
9.972781897,799,1,30,1
9.98649025,848,1,30,1
9.989478588,720,1,30,1
10.00682092,922,1,30,1
10.01622438,774,1,30,1
10.02033162,1001,1,30,1
10.03635454,752,1,30,1
10.0404439,530,1,30,1
10.05464411,733,1,30,1
10.06632924,931,1,30,1
10.07175541,701,1,30,1
10.08714128,848,1,30,1
10.08815646,669,1,30,1
10.10427976,821,1,30,1
10.11667275,689,1,30,1
10.11927629,1735,1,30,1
10.13659954,640,1,30,1
10.14841962,833,1,30,1
10.15425611,670,1,30,1
10.16705251,1702,1,30,1
10.17272282,699,1,30,1
10.18686461,1648,1,30,1
10.19168949,816,1,30,1
10.20727682,1826,1,30,1
10.2164712,942,1,30,1
10.22237992,1753,1,30,1
10.23676109,643,1,30,1
10.23777962,1854,1,30,1
10.25442815,1877,1,30,1
10.26651812,1735,1,30,1
10.27117777,1669,1,30,1
10.28644657,1363,1,30,1
10.28877592,1314,1,30,1
10.30622888,1346,1,30,1
10.31660557,1520,1,30,1
10.32190037,1650,1,30,1
10.33686996,1456,1,30,1
10.34901094,135,1,30,1
10.35470533,1394,1,30,1
10.366436,1286,1,30,1
10.36989117,1211,1,30,1
10.38667822,1218,1,30,1
10.39703417,1040,1,30,1
10.4074769,917,1,30,1
10.41659594,759,1,30,1
10.42444849,1648,1,30,1
10.4362216,1885,1,30,1
10.44709301,1601,1,30,1
10.45483232,710,1,30,1
10.46674204,1360,1,30,1
10.47120261,630,1,30,1
10.48698926,45,1,30,1
10.49719167,1758,1,30,1
10.50676203,1798,1,30,1
10.5167346,251,1,30,1
10.52136993,32,1,30,1
10.53299189,34,1,30,1
10.54702759,1315,1,30,1
10.55665565,2023,1,30,1
10.56667447,989,1,30,1
10.57367134,1696,1,30,1
10.5817132,1911,1,30,1
10.59367418,0,1,30,1
10.60697532,1453,1,30,1
10.61644959,2128,1,30,1
10.62383413,1456,1,30,1
10.63234258,1488,1,30,1
10.64700341,1811,1,30,1
10.6549716,887,1,30,1
10.66495323,2076,1,30,1
10.67297792,1527,1,30,1
10.6827476,355,1,30,1
10.69744372,1546,1,30,1
10.699435,1670,1,30,1
10.71697879,1552,1,30,1
10.72460532,0,1,30,1
10.73733497,1695,1,30,1
10.74698734,227,1,30,1
10.75687456,1580,1,30,1
10.76571012,1359,1,30,1
10.77572656,1723,1,30,1
10.78222561,1319,1,30,1
10.79739213,1711,1,30,1
10.79839015,1319,1,30,1
10.81709027,1813,1,30,1
10.82439017,1011,1,30,1
10.83161354,1475,1,30,1
10.84743834,993,1,30,1
10.85743332,1493,1,30,1
10.86549163,1340,1,30,1
10.87550545,1394,1,30,1
10.88220263,1310,1,30,1
10.89711022,1363,1,30,1
10.89910531,1350,1,30,1
10.91552615,1504,1,30,1
10.92554545,1201,1,30,1
10.93211436,2505,1,30,1
10.94700122,1664,1,30,1
10.95683503,1581,1,30,1
10.96492887,1229,1,30,1
10.97292805,1361,1,30,1
10.98706841,751,1,30,1
10.99715447,1386,1,30,1
10.99932003,812,1,30,1
11.01709771,0,1,30,1
11.02689457,480,1,30,1
11.03712606,1143,1,30,1
11.04687881,827,1,30,1
11.05591011,1626,1,30,1
11.06479549,867,1,30,1
11.07280874,1712,1,30,1
11.08184218,851,1,30,1
11.09184837,1757,1,30,1
11.10184884,912,1,30,1
11.11184835,1805,1,30,1
11.12184954,954,1,30,1
11.13184834,1616,1,30,1
11.14184833,1226,1,30,1
11.15184808,1451,1,30,1
11.16184974,963,1,30,1
11.17184806,1104,1,30,1
11.18184829,706,1,30,1
11.19184828,1351,1,30,1
11.20184684,423,1,30,1
11.2118485,1455,1,30,1
11.22533607,857,1,30,1
11.22845244,1392,1,30,1
11.24720407,399,1,30,1
11.2501967,1232,1,30,1
11.2646327,738,1,30,1
11.27332234,1179,1,30,1
11.28209424,752,1,30,1
11.29692125,1202,1,30,1
11.29791951,768,1,30,1
11.30792856,1309,1,30,1
11.31793427,870,1,30,1
11.32793021,1195,1,30,1
11.33792973,226,1,30,1
11.34792876,1241,1,30,1
11.35909295,926,1,30,1
11.36910486,1270,1,30,1
11.37910485,767,1,30,1
11.3891058,1338,1,30,1
11.39910984,800,1,30,1
11.40912414,1363,1,30,1
11.41910481,737,1,30,1
11.4291048,1353,1,30,1
11.43910503,747,1,30,1
11.449121,1297,1,30,1
11.46711755,724,1,30,1
11.47265792,1343,1,30,1
11.48215437,867,1,30,1
11.4972806,1308,1,30,1
11.50693369,714,1,30,1
11.51729298,1274,1,30,1
11.51829123,788,1,30,1
11.52830672,1254,1,30,1
11.53830671,896,1,30,1
11.54830766,1109,1,30,1
11.55830646,977,1,30,1
11.57315254,1174,1,30,1
11.58315611,1644,1,30,1
11.59316015,1058,1,30,1
11.60683846,574,1,30,1
11.61691999,918,1,30,1
11.62691331,2097,1,30,1
11.63691044,934,1,30,1
11.64694262,793,1,30,1
11.65690827,896,1,30,1
11.66691804,910,1,30,1
11.67712259,822,1,30,1
11.68687177,1671,1,30,1
11.69671726,921,1,30,1
11.70673847,855,1,30,1
11.71336079,864,1,30,1
11.72231698,1367,1,30,1
11.73211002,576,1,30,1
11.74660611,1084,1,30,1
11.74860168,1039,1,30,1
11.75860953,1479,1,30,1
11.76860571,1159,1,30,1
11.77860546,1280,1,30,1
11.78864121,979,1,30,1
11.80710077,1088,1,30,1
11.81711316,768,1,30,1
11.82711267,1753,1,30,1
11.83711982,624,1,30,1
11.847121,1131,1,30,1
11.85726547,708,1,30,1
11.85726547,1168,1,30,1
11.86822701,627,1,30,1
11.88627172,1200,1,30,1
11.89681506,575,1,30,1
11.90692258,1202,1,30,1
11.91330123,449,1,30,1
11.92226529,961,1,30,1
11.93306088,531,1,30,1
11.94671893,1062,1,30,1
11.947716,459,1,30,1
11.95773792,989,1,30,1
11.96772361,597,1,30,1
11.97772193,1051,1,30,1
11.98772073,534,1,30,1
11.99878502,975,1,30,1
12.00879049,487,1,30,1
12.01878977,987,1,30,1
12.02879,523,1,30,1
12.04237843,921,1,30,1
12.05514002,459,1,30,1
12.067101,894,1,30,1
12.0771153,475,1,30,1
12.0871284,893,1,30,1
12.09721541,464,1,30,1
12.10658598,911,1,30,1
12.11454701,541,1,30,1
12.12255907,967,1,30,1
12.13094211,583,1,30,1
12.14689136,894,1,30,1
12.1486752,497,1,30,1
12.15869212,855,1,30,1
12.17707205,429,1,30,1
12.18708062,944,1,30,1
12.19708443,413,1,30,1
12.20718145,894,1,30,1
12.20817757,432,1,30,1
12.21818876,969,1,30,1
12.22818756,247,1,30,1
12.23819113,738,1,30,1
12.25424552,357,1,30,1
12.26425028,767,1,30,1
12.27709794,360,1,30,1
12.28711009,735,1,30,1
12.29724431,336,1,30,1
12.30646014,646,1,30,1
12.3135221,337,1,30,1
12.32349014,688,1,30,1
12.32989788,316,1,30,1
12.34682107,710,1,30,1
12.34883165,352,1,30,1
12.35884666,813,1,30,1
12.36884618,386,1,30,1
12.3864994,816,1,30,1
12.38950205,377,1,30,1
12.39951086,589,1,30,1
12.40951061,320,1,30,1
12.42482328,469,1,30,1
12.43096614,30,1,30,1
12.44097638,401,1,30,1
12.4509778,44,1,30,1
12.46097732,337,1,30,1
12.47097754,239,1,30,1
12.48204136,506,1,30,1
12.49205279,249,1,30,1
12.50205421,407,1,30,1
12.51564717,175,1,30,1
12.52492881,413,1,30,1
12.53019118,94,1,30,1
12.54693985,344,1,30,1
12.55045915,300,1,30,1
12.56424999,2170,1,30,1
12.57709789,0,1,30,1
12.58711553,835,1,30,1
12.5965848,0,1,30,1
12.59758306,919,1,30,1
12.60758924,0,1,30,1
12.6200633,2155,1,30,1
12.63098145,0,1,30,1
12.64098001,2150,1,30,1
12.65298533,0,1,30,1
12.66299248,1907,1,30,1
12.67299223,268,1,30,1
12.68327069,2032,1,30,1
12.69709802,0,1,30,1
12.70710921,2225,1,30,1
12.71710634,0,1,30,1
12.71854186,2055,1,30,1
12.73628855,186,1,30,1
12.74715805,371,1,30,1
12.75706887,62,1,30,1
12.76415563,237,1,30,1
12.77218175,69,1,30,1
12.78088236,428,1,30,1
12.79658198,944,1,30,1
12.79757977,0,1,30,1
12.80758905,0,1,30,1
12.81762171,247,1,30,1
12.82758904,308,1,30,1
12.84019232,138,1,30,1
12.85019851,390,1,30,1
12.86019897,96,1,30,1
12.87709761,395,1,30,1
12.88689828,97,1,30,1
12.8969152,368,1,30,1
12.90712047,88,1,30,1
12.90811849,330,1,30,1
12.91812706,864,1,30,1
12.92813158,272,1,30,1
12.93812799,128,1,30,1
12.95707321,151,1,30,1
12.96660566,150,1,30,1
12.97476101,59,1,30,1
12.9808023,205,1,30,1
12.9968729,48,1,30,1
12.99860311,208,1,30,1
13.00861645,0,1,30,1
13.0199728,231,1,30,1
13.03013253,0,1,30,1
13.04103112,189,1,30,1
13.0510335,0,1,30,1
13.06103063,186,1,30,1
13.07103086,35,1,30,1
13.08709717,245,1,30,1
13.09710956,0,1,30,1
13.10710955,191,1,30,1
13.11710954,22,1,30,1
13.12710953,212,1,30,1
13.13711762,64,1,30,1
13.14709759,2366,1,30,1
13.15717983,0,1,30,1
13.1671772,2229,1,30,1
13.17248321,17,1,30,1
13.18184876,1088,1,30,1
13.19689941,5,1,30,1
13.20644355,876,1,30,1
13.21551299,0,1,30,1
13.22709894,773,1,30,1
13.237113,29,1,30,1
13.24711108,656,1,30,1
13.25710773,0,1,30,1
13.26727962,566,1,30,1
13.2735405,0,1,30,1
13.28707361,528,1,30,1
13.29708195,132,1,30,1
13.30709648,337,1,30,1
13.31707144,269,1,30,1
13.32708359,477,1,30,1
13.33710623,333,1,30,1
13.34718895,432,1,30,1
13.34818578,160,1,30,1
13.36684537,309,1,30,1
13.37441802,80,1,30,1
13.38710856,256,1,30,1
13.3966198,48,1,30,1
13.40575051,240,1,30,1
13.41478896,23,1,30,1
13.42478657,233,1,30,1
13.43478656,32,1,30,1
13.44478846,200,1,30,1
13.45478654,0,1,30,1
13.46481109,190,1,30,1
13.47479963,0,1,30,1
13.48478675,160,1,30,1
13.49479389,0,1,30,1
13.50478768,112,1,30,1
13.51478672,0,1,30,1
13.52478671,64,1,30,1
13.5347867,0,1,30,1
13.54709768,72,1,30,1
13.55710864,0,1,30,1
13.56719923,51,1,30,1
13.5771606,0,1,30,1
13.58163023,50,1,30,1
13.59625149,0,1,30,1
13.6062634,44,1,30,1
13.61407042,27,1,30,1
13.62715793,38,1,30,1
13.63722157,5,1,30,1
13.64730477,8,1,30,1
13.64730477,0,1,30,1
13.65732241,0,1,30,1
13.66731524,0,1,30,1
13.67731714,0,1,30,1
13.68844652,0,1,30,1
13.69845915,19,1,30,1
13.70845795,0,1,30,1
13.71845818,0,1,30,1
13.7284596,0,1,30,1
13.73847342,11,1,30,1
13.74845815,0,1,30,1
13.75845814,101,1,30,1
13.76845813,0,1,30,1
13.78715229,0,1,30,1
13.79627585,0,1,30,1
13.80528831,27,1,30,1
13.81707931,0,1,30,1
13.82508898,30,1,30,1
13.83167768,352,1,30,1
13.84730601,0,1,30,1
13.84730601,26,1,30,1
13.85731602,471,1,30,1
13.86733794,4095,1,30,1
13.87731767,12,1,30,1
13.88731551,0,1,30,1
13.89731574,11,1,30,1
13.90731692,0,1,30,1
13.91731644,39,1,30,1
13.92731524,262,1,30,1
13.93731737,1335,1,30,1
13.95731974,4095,1,30,1
13.95731974,417,1,30,1
13.97731686,0,1,30,1
13.97852778,0,1,30,1
13.99727368,0,1,30,1
14.00171661,0,1,30,1
14.01710486,0,1,30,1
14.02511477,0,1,30,1
14.03092027,0,1,30,1
14.04732013,1456,1,30,1
14.04732013,0,1,30,1
14.06732082,1502,1,30,1
14.06732082,0,1,30,1
14.07993174,0,1,30,1
14.08994746,0,1,30,1
14.10709906,0,1,30,1
14.11711121,0,1,30,1
14.12710762,0,1,30,1
14.13710427,0,1,30,1
14.14711857,0,1,30,1
14.1571207,0,1,30,1
14.16711497,2750,1,30,1
14.17711663,0,1,30,1
14.18711686,2761,1,30,1
14.19711685,0,1,30,1
14.19780445,2319,1,30,1
14.21702862,0,1,30,1
14.22206736,2486,1,30,1
14.23710871,0,1,30,1
14.24646926,0,1,30,1
14.25545382,0,1,30,1
14.26454639,2577,1,30,1
14.27257633,0,1,30,1
14.28257728,0,1,30,1
14.29582787,0,1,30,1
14.29893231,0,1,30,1
14.30893612,0,1,30,1
14.31893611,1893,1,30,1
14.3289361,0,1,30,1
14.33893609,2175,1,30,1
14.34893584,0,1,30,1
14.35893774,2402,1,30,1
14.36894774,0,1,30,1
14.37893724,0,1,30,1
14.38893628,0,1,30,1
14.39893579,0,1,30,1
14.40893698,0,1,30,1
14.41893697,1904,1,30,1
14.43147707,0,1,30,1
14.44728422,2169,1,30,1
14.45529366,0,1,30,1
14.46710587,2322,1,30,1
14.47511578,0,1,30,1
14.4805119,2487,1,30,1
14.49051881,0,1,30,1
14.50051999,772,1,30,1
14.51698852,451,1,30,1
14.52423954,1136,1,30,1
14.5369401,388,1,30,1
14.53893423,1462,1,30,1
14.55645561,629,1,30,1
14.56214094,1777,1,30,1
14.57215476,702,1,30,1
14.5849812,2640,1,30,1
14.58862519,301,1,30,1
14.60534263,2314,1,30,1
14.61677575,976,1,30,1
14.62653089,4095,1,30,1
14.63220429,810,1,30,1
14.64714289,2655,1,30,1
14.65536785,563,1,30,1
14.66488409,2006,1,30,1
14.67606807,229,1,30,1
14.68078518,1891,1,30,1
14.68879795,146,1,30,1
14.69784236,2006,1,30,1
14.70880842,75,1,30,1
14.71880889,2176,1,30,1
14.7288084,0,1,30,1
14.73880839,2245,1,30,1
14.74988008,0,1,30,1
14.7660408,1965,1,30,1
14.77604365,0,1,30,1
14.78604388,2395,1,30,1
14.79604387,6,1,30,1
14.80612278,2174,1,30,1
14.81240654,0,1,30,1
14.82619977,1346,1,30,1
14.83625245,0,1,30,1
14.84620929,1136,1,30,1
14.85630488,0,1,30,1
14.86563015,1033,1,30,1
14.87144208,0,1,30,1
14.88718009,1086,1,30,1
14.89519501,0,1,30,1
14.9002521,1910,1,30,1
14.91480446,0,1,30,1
14.9248395,1455,1,30,1
14.93482637,0,1,30,1
14.94481969,1263,1,30,1
14.95481992,16,1,30,1
14.96482086,1162,1,30,1
14.97482085,7,1,30,1
14.98595834,1265,1,30,1
14.995965,0,1,30,1
15.00597668,1202,1,30,1
15.01597762,14,1,30,1
15.02596664,1104,1,30,1
15.02740073,0,1,30,1
15.03741789,1168,1,30,1
15.04741693,0,1,30,1
15.05742908,1093,1,30,1
15.0759387,0,1,30,1
15.08140492,994,1,30,1
15.09625101,0,1,30,1
15.10577679,1017,1,30,1
15.11470151,0,1,30,1
15.12471223,935,1,30,1
15.13551617,0,1,30,1
15.13753629,925,1,30,1
15.14849544,0,1,30,1
15.15849543,910,1,30,1
15.16849542,0,1,30,1
15.17849517,878,1,30,1
15.18849564,0,1,30,1
15.19849634,821,1,30,1
15.21645403,0,1,30,1
15.21745324,797,1,30,1
15.23725057,0,1,30,1
15.23725057,886,1,30,1
15.24727249,0,1,30,1
15.25726366,848,1,30,1
15.26726341,0,1,30,1
15.28640223,880,1,30,1
15.29612184,0,1,30,1
15.30622077,843,1,30,1
15.31275344,0,1,30,1
15.32625604,805,1,30,1
15.33453035,0,1,30,1
15.3425355,738,1,30,1
15.35058093,0,1,30,1
15.36352324,753,1,30,1
15.37635565,0,1,30,1
15.37735343,549,1,30,1
15.39721537,0,1,30,1
15.39721537,367,1,30,1
15.41739225,0,1,30,1
15.41739225,547,1,30,1
15.43724799,65,1,30,1
15.43724799,526,1,30,1
15.44725585,0,1,30,1
15.45725679,451,1,30,1
15.46726584,0,1,30,1
15.48642397,464,1,30,1
15.4874227,0,1,30,1
15.50171089,404,1,30,1
15.51554823,0,1,30,1
15.52731419,490,1,30,1
15.52944303,0,1,30,1
15.54704499,495,1,30,1
15.54900885,0,1,30,1
15.55905223,375,1,30,1
15.57614875,0,1,30,1
15.58615303,535,1,30,1
15.59717965,0,1,30,1
15.59717965,411,1,30,1
15.61640668,0,1,30,1
15.61740494,289,1,30,1
15.6372242,0,1,30,1
15.6372242,414,1,30,1
15.64725161,0,1,30,1
15.65725207,415,1,30,1
15.66727185,0,1,30,1
15.68642735,475,1,30,1
15.68742657,0,1,30,1
15.70641279,448,1,30,1
15.71265244,0,1,30,1
15.7271688,405,1,30,1
15.73035669,0,1,30,1
15.74726081,457,1,30,1
15.75527215,0,1,30,1
15.76430845,373,1,30,1
15.77431536,0,1,30,1
15.78616095,421,1,30,1
15.79729533,0,1,30,1
15.79729533,352,1,30,1
15.81737876,0,1,30,1
15.81882048,315,1,30,1
15.82883549,0,1,30,1
15.83883548,274,1,30,1
15.85503626,0,1,30,1
15.86504006,574,1,30,1
15.87504053,0,1,30,1
15.88504004,336,1,30,1
15.89617038,0,1,30,1
15.90617776,415,1,30,1
15.90617776,0,1,30,1
15.92628574,336,1,30,1
15.93570328,0,1,30,1
15.94571376,333,1,30,1
15.95605803,0,1,30,1
15.96413755,2109,1,30,1
15.97296691,0,1,30,1
15.98152351,363,1,30,1
15.98952961,0,1,30,1
15.99759388,362,1,30,1
16.00759459,0,1,30,1
16.01759434,358,1,30,1
16.02905107,0,1,30,1
16.04006648,486,1,30,1
16.05003834,0,1,30,1
16.06003833,2107,1,30,1
16.07003832,0,1,30,1
16.08006692,2166,1,30,1
16.0900383,401,1,30,1
16.1060214,1993,1,30,1
16.11602473,0,1,30,1
16.12602472,1663,1,30,1
16.13614082,0,1,30,1
16.14608693,1170,1,30,1
16.15128517,0,1,30,1
16.16360164,927,1,30,1
16.17161322,76,1,30,1
16.17945933,1550,1,30,1
16.18834925,34,1,30,1
16.20543313,1622,1,30,1
16.21273065,0,1,30,1
16.22602057,1936,1,30,1
16.23472357,0,1,30,1
16.24473548,448,1,30,1
16.24998546,0,1,30,1
16.26000142,2127,1,30,1
16.27612162,0,1,30,1
16.28570294,2047,1,30,1
16.29619527,0,1,30,1
16.30369759,803,1,30,1
16.31607866,0,1,30,1
16.32560587,2254,1,30,1
16.33531237,0,1,30,1
16.3420527,2272,1,30,1
16.3561244,6,1,30,1
16.36579871,2101,1,30,1
16.37301922,18,1,30,1
16.38541317,2224,1,30,1
16.39575362,29,1,30,1
16.40351439,2240,1,30,1
16.4157145,30,1,30,1
16.42130256,2288,1,30,1
16.43557692,29,1,30,1
16.44591999,2321,1,30,1
16.45617819,16,1,30,1
16.46598101,2176,1,30,1
16.4723289,0,1,30,1
16.48576379,2138,1,30,1
16.49576712,0,1,30,1
16.50647807,2151,1,30,1
16.51551938,0,1,30,1
16.52673769,2113,1,30,1
16.53603029,0,1,30,1
16.5467391,2098,1,30,1
16.55587769,0,1,30,1
16.56621623,2141,1,30,1
16.57602072,0,1,30,1
16.58546615,2012,1,30,1
16.5956943,0,1,30,1
16.60626197,2091,1,30,1
16.61643434,0,1,30,1
16.626158,2045,1,30,1
16.63683653,0,1,30,1
16.64571333,2013,1,30,1
16.65694666,0,1,30,1
16.6657052,2038,1,30,1
16.67646599,0,1,30,1
16.68593264,2112,1,30,1
16.69602942,0,1,30,1
16.70447278,2263,1,30,1
16.71592903,0,1,30,1
16.72741008,2109,1,30,1
16.73616624,0,1,30,1
16.74670625,1937,1,30,1
16.7556839,0,1,30,1
16.76651549,1911,1,30,1
16.77315474,0,1,30,1
16.77995706,1898,1,30,1
16.79582381,0,1,30,1
16.80572701,1907,1,30,1
16.8164289,0,1,30,1
16.82144594,890,1,30,1
16.83731604,0,1,30,1
16.84609866,377,1,30,1
16.85656285,0,1,30,1
16.8655715,2234,1,30,1
16.8718586,0,1,30,1
16.88584566,2431,1,30,1
16.89597845,0,1,30,1
16.90378118,2161,1,30,1
16.9159584,0,1,30,1
16.92742467,1873,1,30,1
16.93616962,0,1,30,1
16.94668007,1722,1,30,1
16.95632792,0,1,30,1
16.96671224,1883,1,30,1
16.97326374,0,1,30,1
16.98698759,1776,1,30,1
16.99691796,0,1,30,1
17.00628257,1712,1,30,1
17.01609349,0,1,30,1
17.02611065,1815,1,30,1
17.03641319,0,1,30,1
17.04693508,1831,1,30,1
17.05647564,0,1,30,1
17.06583714,1803,1,30,1
17.07580733,0,1,30,1
17.08610964,1678,1,30,1
17.09604359,0,1,30,1
17.10537219,1642,1,30,1
17.11535311,0,1,30,1
17.12446904,1658,1,30,1
17.13616514,0,1,30,1
17.14155316,2019,1,30,1
17.15538716,0,1,30,1
17.16601872,1702,1,30,1
17.17271352,0,1,30,1
17.18615723,1568,1,30,1
17.19560099,0,1,30,1
17.20360279,1543,1,30,1
17.21315336,0,1,30,1
17.22378349,1520,1,30,1
17.23600221,0,1,30,1
17.24711609,1586,1,30,1
17.25569105,0,1,30,1
17.26531124,1507,1,30,1
17.26943374,0,1,30,1
17.28606653,1578,1,30,1
17.29656029,1815,1,30,1
17.30336905,1590,1,30,1
17.31531525,2608,1,30,1
17.32386351,1544,1,30,1
17.33596492,2323,1,30,1
17.34672356,1499,1,30,1
17.35434008,1365,1,30,1
17.36584401,1520,1,30,1
17.37021542,1666,1,30,1
17.38559127,1358,1,30,1
17.39680767,1840,1,30,1
17.4059186,1478,1,30,1
17.4158392,1395,1,30,1
17.42410159,1376,1,30,1
17.43610382,1755,1,30,1
17.44694281,1467,1,30,1
17.45466638,2032,1,30,1
17.46520686,1417,1,30,1
17.47070313,2545,1,30,1
17.48619795,1486,1,30,1
17.49730468,667,1,30,1
17.50227141,1441,1,30,1
17.5154326,0,1,30,1
17.52470613,1393,1,30,1
17.53599882,0,1,30,1
17.54686451,1382,1,30,1
17.5538373,2251,1,30,1
17.56600189,1358,1,30,1
17.56934524,2543,1,30,1
17.58585477,1319,1,30,1
17.59660578,2265,1,30,1
17.60303974,1314,1,30,1
17.6161418,611,1,30,1
17.62584949,1406,1,30,1
17.63610315,720,1,30,1
17.64734602,1434,1,30,1
17.65594339,1216,1,30,1
17.66536999,1255,1,30,1
17.67063832,245,1,30,1
17.68595958,1082,1,30,1
17.69662952,2283,1,30,1
17.70199585,1685,1,30,1
17.71601653,300,1,30,1
17.71971679,1475,1,30,1
17.73563552,2423,1,30,1
17.74663734,1434,1,30,1
17.75242639,0,1,30,1
17.76711917,1110,1,30,1
17.77128911,0,1,30,1
17.78689647,1399,1,30,1
17.79548097,0,1,30,1
17.80750632,1509,1,30,1
17.81537151,0,1,30,1
17.82063079,1314,1,30,1
17.83597302,0,1,30,1
17.84666419,1105,1,30,1
17.85647392,0,1,30,1
17.86611605,1473,1,30,1
17.87749672,560,1,30,1
17.88588071,1391,1,30,1
17.8973515,0,1,30,1
17.90439963,1382,1,30,1
17.91605997,76,1,30,1
17.9205718,1342,1,30,1
17.93603349,0,1,30,1
17.94664478,1376,1,30,1
17.95254922,0,1,30,1
17.96714735,1366,1,30,1
17.9691298,0,1,30,1
17.98670292,1357,1,30,1
17.99655867,0,1,30,1
18.00375724,1351,1,30,1
18.01620412,0,1,30,1
18.01894355,1328,1,30,1
18.03622508,0,1,30,1
18.04728436,1266,1,30,1
18.05578899,0,1,30,1
18.0660007,1261,1,30,1
18.07172918,0,1,30,1
18.0854423,1244,1,30,1
18.09676671,0,1,30,1
18.10263133,1279,1,30,1
18.11622953,0,1,30,1
18.11977339,1250,1,30,1
18.13549781,0,1,30,1
18.14673114,1232,1,30,1
18.15204191,0,1,30,1
18.16684937,1216,1,30,1
18.17138505,0,1,30,1
18.18573713,1201,1,30,1
18.19673872,0,1,30,1
18.20176601,1194,1,30,1
18.21548343,0,1,30,1
18.21854687,1167,1,30,1
18.23629236,0,1,30,1
18.24727011,1155,1,30,1
18.25256205,455,1,30,1
18.26612067,1139,1,30,1
18.27692986,0,1,30,1
18.28628254,1276,1,30,1
18.29663992,0,1,30,1
18.30537605,1424,1,30,1
18.31625271,0,1,30,1
18.31827664,1122,1,30,1
18.33625436,0,1,30,1
18.34641838,1767,1,30,1
18.35351229,0,1,30,1
18.36531258,1808,1,30,1
18.37559175,0,1,30,1
18.38576341,1691,1,30,1
18.39655447,0,1,30,1
18.40231466,890,1,30,1
18.41566801,1252,1,30,1
18.42275405,2032,1,30,1
18.43569779,1040,1,30,1
18.44739699,2066,1,30,1
18.45599961,848,1,30,1
18.4655354,1602,1,30,1
18.4763391,1104,1,30,1
18.48539972,1343,1,30,1
18.49587679,919,1,30,1
18.50607133,1150,1,30,1
18.51613712,1125,1,30,1
18.52412033,1440,1,30,1
18.53517318,962,1,30,1
18.5459311,2000,1,30,1
18.55381012,1065,1,30,1
18.56622648,1069,1,30,1
18.56956363,1147,1,30,1
18.58575916,954,1,30,1
18.59633279,1148,1,30,1
18.60582852,875,1,30,1
18.6154449,1216,1,30,1
18.62128162,805,1,30,1
18.63559818,1193,1,30,1
18.64590836,688,1,30,1
18.65498567,1180,1,30,1
18.66598177,657,1,30,1
18.67382956,1077,1,30,1
18.68579435,709,1,30,1
18.69634652,1387,1,30,1
18.70571518,690,1,30,1
18.71554708,1425,1,30,1
18.7209518,697,1,30,1
18.73557448,1552,1,30,1
18.74529862,640,1,30,1
18.75297761,1581,1,30,1
18.76545191,607,1,30,1
18.77091479,1631,1,30,1
18.78590631,585,1,30,1
18.7952919,1739,1,30,1
18.80529833,592,1,30,1
18.81557703,1404,1,30,1
18.82278991,626,1,30,1
18.83537841,1721,1,30,1
18.8462038,254,1,30,1
18.8562541,1645,1,30,1
18.86593843,439,1,30,1
18.87570882,1682,1,30,1
18.88326764,547,1,30,1
18.89326835,1670,1,30,1
18.90465832,573,1,30,1
18.91203856,1535,1,30,1
18.92357063,423,1,30,1
18.93564272,1263,1,30,1
18.94585276,127,1,30,1
18.95489693,1014,1,30,1
18.96597648,114,1,30,1
18.97638106,1197,1,30,1
18.98680139,134,1,30,1
18.99603438,1248,1,30,1
19.00553131,501,1,30,1
19.01561904,1344,1,30,1
19.02326512,579,1,30,1
19.02912569,1401,1,30,1
19.04583812,601,1,30,1
19.0554924,1452,1,30,1
19.06605291,500,1,30,1
19.06984329,1509,1,30,1
19.08535528,641,1,30,1
19.09647107,1321,1,30,1
19.10589123,564,1,30,1
19.11697221,1120,1,30,1
19.12323833,370,1,30,1
19.13750005,1344,1,30,1
19.14557266,33,1,30,1
19.15560722,1280,1,30,1
19.16300917,435,1,30,1
19.17388344,1317,1,30,1
19.18167901,365,1,30,1
19.19172025,1316,1,30,1
19.20654988,336,1,30,1
19.21279335,1307,1,30,1
19.22655559,310,1,30,1
19.22755241,1272,1,30,1
19.24647737,236,1,30,1
19.24747396,1227,1,30,1
19.25747728,12,1,30,1
19.26747704,1127,1,30,1
19.27747679,0,1,30,1
19.29635739,1103,1,30,1
19.30617142,0,1,30,1
19.31305528,954,1,30,1
19.3210988,283,1,30,1
19.3365612,1251,1,30,1
19.34610987,119,1,30,1
19.35440683,1114,1,30,1
19.36605811,235,1,30,1
19.36705613,923,1,30,1
19.37825012,187,1,30,1
19.39003611,921,1,30,1
19.40646815,169,1,30,1
19.4074657,915,1,30,1
19.4263196,0,1,30,1
19.42856312,822,1,30,1
19.4440558,171,1,30,1
19.45607424,837,1,30,1
19.46610045,145,1,30,1
19.46708846,715,1,30,1
19.48608351,180,1,30,1
19.49614882,770,1,30,1
19.50554228,163,1,30,1
19.51535416,829,1,30,1
19.52251697,80,1,30,1
19.53571153,657,1,30,1
19.5451684,89,1,30,1
19.55532312,658,1,30,1
19.56515121,83,1,30,1
19.57534075,850,1,30,1
19.58537269,0,1,30,1
19.59640002,862,1,30,1
19.60594559,144,1,30,1
19.61609221,931,1,30,1
19.62180519,164,1,30,1
19.63551521,1390,1,30,1
19.64623928,2243,1,30,1
19.6552062,1357,1,30,1
19.66597676,563,1,30,1
19.67619729,1531,1,30,1
19.68025446,576,1,30,1
19.69570255,1695,1,30,1
19.70588899,616,1,30,1
19.71538639,1456,1,30,1
19.72008538,635,1,30,1
19.73436522,1239,1,30,1
19.74573255,581,1,30,1
19.75593138,1210,1,30,1
19.76608419,538,1,30,1
19.77411795,1013,1,30,1
19.78171682,421,1,30,1
19.79624462,1036,1,30,1
19.80508327,343,1,30,1
19.81369877,1018,1,30,1
19.82648134,168,1,30,1
19.82840776,1002,1,30,1
19.83940053,176,1,30,1
19.8506403,1023,1,30,1
19.86066413,185,1,30,1
19.87065721,1094,1,30,1
19.88172674,192,1,30,1
19.89174151,1082,1,30,1
19.90624905,272,1,30,1
19.91625428,1023,1,30,1
19.92625642,247,1,30,1
19.93637681,1049,1,30,1
19.94625592,275,1,30,1
19.95613623,1071,1,30,1
19.965868,174,1,30,1
19.97504687,1077,1,30,1
19.98019552,0,1,30,1
19.99560952,1040,1,30,1
19.99664545,10,1,30,1
20.01218343,1067,1,30,1
20.01965022,0,1,30,1
20.0349443,1049,1,30,1
20.04594922,0,1,30,1
20.0540812,1023,1,30,1
20.06591344,166,1,30,1
20.07438421,977,1,30,1
20.08554888,119,1,30,1
20.09605813,903,1,30,1
20.10433865,142,1,30,1
20.11581898,874,1,30,1
20.12061214,0,1,30,1
20.13377786,911,1,30,1
20.14567447,0,1,30,1
20.15594006,1259,1,30,1
20.1659236,0,1,30,1
20.17251945,1619,1,30,1
20.18526101,141,1,30,1
20.19612575,1459,1,30,1
20.20624399,0,1,30,1
20.21530509,1466,1,30,1
20.21991968,0,1,30,1
20.23600531,1565,1,30,1
20.24635124,2005,1,30,1
20.25555182,1535,1,30,1
20.26629996,2218,1,30,1
20.27212429,1335,1,30,1
20.28616905,521,1,30,1
20.2961731,1311,1,30,1
20.30508518,557,1,30,1
20.31542325,1200,1,30,1
20.32103062,546,1,30,1
20.33598447,1170,1,30,1
20.34500599,588,1,30,1
20.35597944,1184,1,30,1
20.36604881,592,1,30,1
20.37416458,1310,1,30,1
20.385216,543,1,30,1
20.39503336,1310,1,30,1
20.40569901,603,1,30,1
20.41600323,1318,1,30,1
20.42553401,532,1,30,1
20.43603849,1295,1,30,1
20.44625998,699,1,30,1
20.45622754,1296,1,30,1
20.46614385,2117,1,30,1
20.47377014,1041,1,30,1
20.48594999,1744,1,30,1
20.4960084,688,1,30,1
20.5057497,1751,1,30,1
20.51554823,1520,1,30,1
20.52168608,2215,1,30,1
20.53554559,1248,1,30,1
20.5461216,687,1,30,1
20.55603456,1296,1,30,1
20.56582451,2180,1,30,1
20.57068634,1471,1,30,1
20.58543921,2288,1,30,1
20.59609294,1381,1,30,1
20.60557628,2227,1,30,1
20.61564255,1278,1,30,1
20.6255455,2176,1,30,1
20.63547325,1193,1,30,1
20.64642215,2125,1,30,1
20.6562376,1282,1,30,1
20.66578364,2128,1,30,1
20.67115164,1271,1,30,1
20.68559813,2177,1,30,1
20.69613814,1251,1,30,1
20.7040658,2041,1,30,1
20.71538115,1328,1,30,1
20.72526789,2101,1,30,1
20.73591137,1294,1,30,1
20.74494791,2000,1,30,1
20.75568867,1342,1,30,1
20.76579833,2002,1,30,1
20.77379799,1310,1,30,1
20.78594279,1998,1,30,1
20.79595375,1251,1,30,1
20.80604887,1994,1,30,1
20.81393695,1295,1,30,1
20.82633519,2039,1,30,1
20.83613062,1217,1,30,1
20.84608936,1967,1,30,1
20.85518074,1257,1,30,1
20.86611128,1943,1,30,1
20.87046742,1165,1,30,1
20.87922883,1905,1,30,1
20.89600253,1200,1,30,1
20.90557241,1886,1,30,1
20.91523099,1179,1,30,1
20.92188191,1924,1,30,1
20.93601799,1116,1,30,1
20.94588447,1886,1,30,1
20.95504355,1042,1,30,1
20.96595764,1890,1,30,1
20.97226882,439,1,30,1
20.98607254,1750,1,30,1
20.99487138,746,1,30,1
21.00431347,1870,1,30,1
21.01604772,725,1,30,1
21.02445745,1794,1,30,1
21.03622174,735,1,30,1
21.04594851,1780,1,30,1
21.05613708,670,1,30,1
21.06566143,1957,1,30,1
21.07022667,832,1,30,1
21.08528423,1699,1,30,1
21.09600186,813,1,30,1
21.10625768,1667,1,30,1
21.11549234,735,1,30,1
21.1250968,1691,1,30,1
21.1350832,861,1,30,1
21.14603233,1930,1,30,1
21.15572834,1150,1,30,1
21.16594219,1770,1,30,1
21.17123675,1728,1,30,1
21.18528605,1513,1,30,1
21.19595957,849,1,30,1
21.20205712,1143,1,30,1
21.21596718,827,1,30,1
21.22511888,1626,1,30,1
21.23533726,867,1,30,1
21.24561024,1712,1,30,1
21.2486155,851,1,30,1
21.26540732,1757,1,30,1
21.27440071,912,1,30,1
21.28593612,1805,1,30,1
21.29591608,954,1,30,1
21.30364108,1616,1,30,1
21.31599569,1226,1,30,1
21.32364559,1451,1,30,1
21.33607578,963,1,30,1
21.34480572,1104,1,30,1
21.35543323,706,1,30,1
21.36555314,1351,1,30,1
21.37271214,423,1,30,1
21.38619733,1455,1,30,1
21.39587879,857,1,30,1
21.40607953,1392,1,30,1
21.41523385,399,1,30,1
21.42344475,1232,1,30,1
21.43573236,738,1,30,1
21.44604158,1179,1,30,1
21.4561336,752,1,30,1
21.46593118,1202,1,30,1
21.47382879,768,1,30,1
21.486166,1309,1,30,1
21.49585938,870,1,30,1
21.50626683,1195,1,30,1
21.51572609,226,1,30,1
21.5225153,1241,1,30,1
21.53625226,926,1,30,1
21.54596472,1270,1,30,1
21.55643654,767,1,30,1
21.56573009,1338,1,30,1
21.57115293,800,1,30,1
21.58533525,1363,1,30,1
21.59557462,737,1,30,1
21.60611343,1353,1,30,1
21.61576128,747,1,30,1
21.62591052,1297,1,30,1
21.63306355,724,1,30,1
21.64568901,1343,1,30,1
21.65584564,867,1,30,1
21.66541243,1308,1,30,1
21.67643142,714,1,30,1
21.68640995,1274,1,30,1
21.695961,788,1,30,1
21.70654106,1254,1,30,1
21.71518683,896,1,30,1
21.72430587,1109,1,30,1
21.73639989,977,1,30,1
21.74578142,1174,1,30,1
21.7562232,1644,1,30,1
21.76548624,1058,1,30,1
21.77116609,574,1,30,1
21.7856102,918,1,30,1
21.79601145,2097,1,30,1
21.80487633,934,1,30,1
21.81522965,793,1,30,1
21.82287526,896,1,30,1
21.83525586,910,1,30,1
21.84585929,822,1,30,1
21.85572267,1671,1,30,1
21.86580968,921,1,30,1
21.87546134,855,1,30,1
21.88557625,864,1,30,1
21.89470482,1367,1,30,1
21.90631771,576,1,30,1
21.91575503,1084,1,30,1
21.92250013,1039,1,30,1
21.93535948,1479,1,30,1
21.94582081,1159,1,30,1
21.9544673,1280,1,30,1
21.96620417,979,1,30,1
21.9691956,1088,1,30,1
21.98556447,768,1,30,1
21.99583054,1753,1,30,1
22.00367594,624,1,30,1
22.01624227,1131,1,30,1
22.02345443,708,1,30,1
22.03591704,1168,1,30,1
22.04467607,627,1,30,1
22.05556607,1200,1,30,1
22.06580329,575,1,30,1
22.0741539,1202,1,30,1
22.08570933,449,1,30,1
22.09581995,961,1,30,1
22.10016966,531,1,30,1
22.11614442,1062,1,30,1
22.12386799,459,1,30,1
22.13579321,989,1,30,1
22.1447103,597,1,30,1
22.1541574,1051,1,30,1
22.16186595,534,1,30,1
22.17030191,975,1,30,1
22.18519211,487,1,30,1
22.19560003,987,1,30,1
22.20549273,523,1,30,1
22.21554279,921,1,30,1
22.22190952,459,1,30,1
22.23582029,894,1,30,1
22.24581504,475,1,30,1
22.25462008,893,1,30,1
22.26590323,464,1,30,1
22.27204156,911,1,30,1
22.28620481,541,1,30,1
22.29570222,967,1,30,1
22.3063705,583,1,30,1
22.3153913,894,1,30,1
22.321872,497,1,30,1
22.33582854,855,1,30,1
22.34582758,429,1,30,1
22.35455465,944,1,30,1
22.3658607,413,1,30,1
22.37170744,894,1,30,1
22.38613915,432,1,30,1
22.39571524,969,1,30,1
22.40384102,247,1,30,1
22.41512823,738,1,30,1
22.42293119,357,1,30,1
22.43585658,767,1,30,1
22.445889,360,1,30,1
22.4544313,735,1,30,1
22.46616077,336,1,30,1
22.47543311,646,1,30,1
22.48609519,337,1,30,1
22.4956224,688,1,30,1
22.50626826,316,1,30,1
22.51533556,710,1,30,1
22.5232203,352,1,30,1
22.53612399,813,1,30,1
22.54572773,386,1,30,1
22.5548799,816,1,30,1
22.56592178,377,1,30,1
22.57510614,589,1,30,1
22.58617425,320,1,30,1
22.59563708,469,1,30,1
22.60625601,30,1,30,1
22.61535168,401,1,30,1
22.62632775,44,1,30,1
22.63632107,337,1,30,1
22.64564657,239,1,30,1
22.65282917,506,1,30,1
22.66564512,249,1,30,1
22.67484593,407,1,30,1
22.6860013,175,1,30,1
22.69569278,413,1,30,1
22.70550442,94,1,30,1
22.71562362,344,1,30,1
22.7221489,300,1,30,1
22.7355423,2170,1,30,1
22.74564314,0,1,30,1
22.75197887,835,1,30,1
22.76536822,0,1,30,1
22.77472568,919,1,30,1
22.7851038,0,1,30,1
22.79563546,2155,1,30,1
22.80623579,0,1,30,1
22.81629229,2150,1,30,1
22.82081151,0,1,30,1
22.83544135,1907,1,30,1
22.84566092,268,1,30,1
22.85356498,2032,1,30,1
22.86572766,0,1,30,1
22.87444496,2225,1,30,1
22.88592696,0,1,30,1
22.89558935,2055,1,30,1
22.9053123,186,1,30,1
22.91554713,371,1,30,1
22.92358661,62,1,30,1
22.93587494,237,1,30,1
22.94565201,69,1,30,1
22.95656824,428,1,30,1
22.96541762,944,1,30,1
22.97424674,0,1,30,1
22.98622227,0,1,30,1
22.99583173,247,1,30,1
23.0048666,308,1,30,1
23.01612997,138,1,30,1
23.0226872,390,1,30,1
23.03565669,96,1,30,1
23.04559994,395,1,30,1
23.0524931,97,1,30,1
23.06557751,368,1,30,1
23.07023787,88,1,30,1
23.08618546,330,1,30,1
23.09572744,864,1,30,1
23.10603786,272,1,30,1
23.11552501,128,1,30,1
23.12535238,151,1,30,1
23.13563132,150,1,30,1
23.14449835,59,1,30,1
23.15588689,205,1,30,1
23.16620183,48,1,30,1
23.17141557,208,1,30,1
23.18612528,0,1,30,1
23.1954906,231,1,30,1
23.2056129,0,1,30,1
23.21556282,189,1,30,1
23.22100878,0,1,30,1
23.23601055,186,1,30,1
23.24557352,35,1,30,1
23.2559011,245,1,30,1
23.26561165,0,1,30,1
23.2697618,191,1,30,1
23.28629827,22,1,30,1
23.29446673,212,1,30,1
23.30395222,64,1,30,1
23.31579804,2366,1,30,1
23.32199693,0,1,30,1
23.33520389,2229,1,30,1
23.34588861,17,1,30,1
23.35607386,1088,1,30,1
23.36582589,5,1,30,1
23.3707211,876,1,30,1
23.38571048,0,1,30,1
23.39571047,773,1,30,1
23.40486884,29,1,30,1
23.41629577,656,1,30,1
23.42625141,0,1,30,1
23.436239,566,1,30,1
23.44442701,0,1,30,1
23.45304966,528,1,30,1
23.46589828,132,1,30,1
23.47088361,337,1,30,1
23.48583055,269,1,30,1
23.49539018,477,1,30,1
23.50321889,333,1,30,1
23.51531696,432,1,30,1
23.52563524,160,1,30,1
23.53531051,309,1,30,1
23.54553437,80,1,30,1
23.55391836,256,1,30,1
23.56623697,48,1,30,1
23.56944108,240,1,30,1
23.58531976,23,1,30,1
23.59440327,233,1,30,1
23.60218811,32,1,30,1
23.61580706,200,1,30,1
23.62163162,0,1,30,1
23.63552117,190,1,30,1
23.64541984,0,1,30,1
23.65509677,160,1,30,1
23.66609359,0,1,30,1
23.6709621,112,1,30,1
23.68469667,0,1,30,1
23.69563007,64,1,30,1
23.70328736,0,1,30,1
23.7157743,72,1,30,1
23.71929502,0,1,30,1
23.73562002,51,1,30,1
23.74572802,0,1,30,1
23.75589371,50,1,30,1
23.76519084,0,1,30,1
23.7707181,44,1,30,1
23.78614354,27,1,30,1
23.79436111,38,1,30,1
23.80247855,5,1,30,1
23.81557536,8,1,30,1
23.81971455,0,1,30,1
23.83023763,0,1,30,1
23.84550381,0,1,30,1
23.85283566,0,1,30,1
23.86587453,0,1,30,1
23.87061286,19,1,30,1
23.88056159,0,1,30,1
23.89537358,0,1,30,1
23.90364575,0,1,30,1
23.91570663,11,1,30,1
23.91966438,0,1,30,1
23.92934608,101,1,30,1
23.94123316,0,1,30,1
23.95539308,0,1,30,1
23.96571469,0,1,30,1
23.9708724,27,1,30,1
23.97906899,0,1,30,1
23.99499869,30,1,30,1
24.00202823,352,1,30,1
24.01383018,0,1,30,1
24.02187014,26,1,30,1
24.02941871,471,1,30,1
24.0455358,4095,1,30,1
24.05619478,12,1,30,1
24.06552505,0,1,30,1
24.07044744,11,1,30,1
24.07902312,0,1,30,1
24.09564805,39,1,30,1
24.10465479,262,1,30,1
24.1130898,1335,1,30,1
24.12430072,4095,1,30,1
24.13046956,417,1,30,1
24.14636517,0,1,30,1
24.14736414,0,1,30,1
24.16567969,0,1,30,1
24.17412281,0,1,30,1
24.17879796,0,1,30,1
24.19578767,0,1,30,1
24.20479417,0,1,30,1
24.21294999,1456,1,30,1
24.22299314,0,1,30,1
24.22966099,1502,1,30,1
24.24650574,0,1,30,1
24.25666976,0,1,30,1
24.26300883,0,1,30,1
24.27302551,0,1,30,1
24.27968192,0,1,30,1
24.29566288,0,1,30,1
24.30553961,0,1,30,1
24.31393695,0,1,30,1
24.3219552,0,1,30,1
24.33009458,2750,1,30,1
24.34544182,0,1,30,1
24.35345888,2761,1,30,1
24.36299443,0,1,30,1
24.37542343,2319,1,30,1
24.38611031,0,1,30,1
24.39555812,2486,1,30,1
24.40356398,0,1,30,1
24.41194391,0,1,30,1
24.41995239,0,1,30,1
24.42966986,2577,1,30,1
24.43968439,0,1,30,1
24.44968486,0,1,30,1
24.459692,0,1,30,1
24.46968532,0,1,30,1
24.47968531,0,1,30,1
24.4896853,1893,1,30,1
24.50088835,0,1,30,1
24.51091886,2175,1,30,1
24.52095199,0,1,30,1
24.53091884,2402,1,30,1
24.54093146,0,1,30,1
24.55091882,0,1,30,1
24.56215668,0,1,30,1
24.57217073,0,1,30,1
24.58500862,0,1,30,1
24.59460354,1904,1,30,1
24.60260606,0,1,30,1
24.61097789,2169,1,30,1
24.62325263,0,1,30,1
24.62846375,2322,1,30,1
24.64342856,0,1,30,1
24.64666915,2487,1,30,1
24.65667558,0,1,30,1
24.6666739,772,1,30,1
24.68015146,451,1,30,1
24.69016433,1136,1,30,1
24.70016336,388,1,30,1
24.71016407,1462,1,30,1
24.72135258,629,1,30,1
24.73136759,1777,1,30,1
24.74136615,702,1,30,1
24.75136685,2640,1,30,1
24.76252723,301,1,30,1
24.77366138,2314,1,30,1
24.78367352,976,1,30,1
24.79598236,4095,1,30,1
24.80540276,810,1,30,1
24.81565309,2655,1,30,1
24.82366633,563,1,30,1
24.83035445,2006,1,30,1
24.84516954,229,1,30,1
24.85555005,1891,1,30,1
24.85654807,146,1,30,1
24.86762261,2006,1,30,1
24.87763357,75,1,30,1
24.88763547,2176,1,30,1
24.89763427,0,1,30,1
24.9076345,2245,1,30,1
24.91763473,0,1,30,1
24.92763329,1965,1,30,1
24.93763304,0,1,30,1
24.94763207,2395,1,30,1
24.95763206,6,1,30,1
24.96875215,2174,1,30,1
24.98087668,0,1,30,1
24.99088407,1346,1,30,1
25.0008862,0,1,30,1
25.0145247,1136,1,30,1
25.02585196,0,1,30,1
25.02880812,1033,1,30,1
25.04514933,0,1,30,1
25.05315661,1086,1,30,1
25.06189966,0,1,30,1
25.0760951,1910,1,30,1
25.08610368,0,1,30,1
25.09610653,1455,1,30,1
25.10610437,0,1,30,1
25.10758352,1263,1,30,1
25.11761045,16,1,30,1
25.13088393,1162,1,30,1
25.14089727,7,1,30,1
25.15490103,1265,1,30,1
25.15788698,0,1,30,1
25.16789174,1202,1,30,1
25.17789054,14,1,30,1
25.18790722,1104,1,30,1
25.19789696,0,1,30,1
25.20789099,1168,1,30,1
25.21790481,0,1,30,1
25.2314539,1093,1,30,1
25.24540997,0,1,30,1
25.25343633,994,1,30,1
25.2617538,0,1,30,1
25.26975131,1017,1,30,1
25.27949548,0,1,30,1
25.28991151,935,1,30,1
25.30610514,0,1,30,1
25.31613588,925,1,30,1
25.32611728,0,1,30,1
25.33611727,910,1,30,1
25.3461163,0,1,30,1
25.35611653,878,1,30,1
25.36611748,0,1,30,1
25.37611461,821,1,30,1
25.38611746,0,1,30,1
25.39611936,797,1,30,1
25.40611458,0,1,30,1
25.41611743,886,1,30,1
25.42611289,0,1,30,1
25.43612242,848,1,30,1
25.44627762,0,1,30,1
25.45631409,880,1,30,1
25.4609735,0,1,30,1
25.47075772,843,1,30,1
25.47738647,0,1,30,1
25.49518752,805,1,30,1
25.50607634,0,1,30,1
25.51608014,738,1,30,1
25.52608299,0,1,30,1
25.5282495,753,1,30,1
25.53825593,0,1,30,1
25.54825568,549,1,30,1
25.55825925,0,1,30,1
25.56826162,367,1,30,1
25.57825685,0,1,30,1
25.58825588,547,1,30,1
25.59825635,65,1,30,1
25.60825634,526,1,30,1
25.61825919,0,1,30,1
25.62825584,451,1,30,1
25.6382587,0,1,30,1
25.65194154,464,1,30,1
25.66580176,0,1,30,1
25.6694994,404,1,30,1
25.68140435,0,1,30,1
25.69607806,490,1,30,1
25.70408893,0,1,30,1
25.71610832,495,1,30,1
25.72612023,0,1,30,1
25.73612309,375,1,30,1
25.74613905,0,1,30,1
25.75612092,535,1,30,1
25.76612067,0,1,30,1
25.77611923,411,1,30,1
25.78622484,0,1,30,1
25.78821921,289,1,30,1
25.79823494,0,1,30,1
25.80825377,414,1,30,1
25.81823492,0,1,30,1
25.82823324,415,1,30,1
25.8382349,0,1,30,1
25.84824491,475,1,30,1
25.8620379,0,1,30,1
25.86941504,448,1,30,1
25.88175035,0,1,30,1
25.89604807,405,1,30,1
25.90405273,0,1,30,1
25.91191149,457,1,30,1
25.9210825,0,1,30,1
25.93350244,373,1,30,1
25.9455564,0,1,30,1
25.95421028,421,1,30,1
25.96610165,0,1,30,1
25.97575569,352,1,30,1
25.98492217,0,1,30,1
25.99488401,315,1,30,1
26.00385356,0,1,30,1
26.01567674,274,1,30,1
26.0234704,0,1,30,1
26.03634787,574,1,30,1
26.04538631,0,1,30,1
26.05578566,336,1,30,1
26.0653789,0,1,30,1
26.06776953,415,1,30,1
26.08356237,0,1,30,1
26.09568214,336,1,30,1
26.10608315,0,1,30,1
26.11544013,333,1,30,1
26.12220001,0,1,30,1
26.13577318,2109,1,30,1
26.14600754,0,1,30,1
26.15278459,363,1,30,1
26.16533113,0,1,30,1
26.17609882,362,1,30,1
26.18611407,0,1,30,1
26.19388199,358,1,30,1
26.20657444,0,1,30,1
26.21615624,486,1,30,1
26.22195053,0,1,30,1
26.23643661,2107,1,30,1
26.24594474,0,1,30,1
26.25255227,2166,1,30,1
26.26596618,401,1,30,1
26.26795721,1993,1,30,1
26.28524661,0,1,30,1
26.29602361,1663,1,30,1
26.30490875,0,1,30,1
26.31054473,1170,1,30,1
26.32625341,0,1,30,1
26.33540487,927,1,30,1
26.34386086,76,1,30,1
26.3540473,1550,1,30,1
26.36568046,34,1,30,1
26.37660527,1622,1,30,1
26.38555288,0,1,30,1
26.3961215,1936,1,30,1
26.40617085,0,1,30,1
26.41566825,448,1,30,1
26.42129302,0,1,30,1
26.4359262,2127,1,30,1
26.44612098,0,1,30,1
26.45066333,2047,1,30,1
26.4659152,0,1,30,1
26.47506237,803,1,30,1
26.48566866,0,1,30,1
26.4948597,2254,1,30,1
26.50625491,0,1,30,1
26.51348186,2272,1,30,1
26.52591681,6,1,30,1
26.53566504,2101,1,30,1
26.54384589,18,1,30,1
26.55198145,2224,1,30,1
26.56580043,29,1,30,1
26.57039022,2240,1,30,1
26.58621335,30,1,30,1
26.59387636,2288,1,30,1
26.60588932,29,1,30,1
26.61527157,2321,1,30,1
26.62354898,16,1,30,1
26.6357398,2176,1,30,1
26.64524269,0,1,30,1
26.65646648,2138,1,30,1
26.66600156,0,1,30,1
26.67582798,2151,1,30,1
26.68591022,0,1,30,1
26.69608355,2113,1,30,1
26.70571017,0,1,30,1
26.71620727,2098,1,30,1
26.72252369,0,1,30,1
26.73595738,2141,1,30,1
26.74558234,0,1,30,1
26.75261545,2012,1,30,1
26.76522517,0,1,30,1
26.77582908,2091,1,30,1
26.78570056,0,1,30,1
26.79639959,2045,1,30,1
26.80648065,0,1,30,1
26.81543517,2013,1,30,1
26.82069969,0,1,30,1
26.83435297,2038,1,30,1
26.8463335,0,1,30,1
26.85177946,2112,1,30,1
26.86569595,0,1,30,1
26.8690269,2263,1,30,1
26.88579249,0,1,30,1
26.89630675,2109,1,30,1
26.90495348,0,1,30,1
26.91533661,1937,1,30,1
26.91932535,0,1,30,1
26.93638086,1911,1,30,1
26.94461846,0,1,30,1
26.95536661,1898,1,30,1
26.9654429,0,1,30,1
26.9743216,1907,1,30,1
26.9863832,0,1,30,1
26.99465132,890,1,30,1
27.00150418,0,1,30,1
27.01535201,377,1,30,1
27.02430654,0,1,30,1
27.03615165,2234,1,30,1
27.04375505,0,1,30,1
27.05326533,2431,1,30,1
27.06585383,0,1,30,1
27.07526827,2161,1,30,1
27.08526158,0,1,30,1
27.0956676,1873,1,30,1
27.1058743,0,1,30,1
27.11556625,1722,1,30,1
27.12210846,0,1,30,1
27.13566995,1883,1,30,1
27.14603066,0,1,30,1
27.15356517,1776,1,30,1
27.16602302,0,1,30,1
27.1739037,1712,1,30,1
27.18565226,0,1,30,1
27.19608736,1815,1,30,1
27.20124578,0,1,30,1
27.21615362,1831,1,30,1
27.22223949,0,1,30,1
27.23596406,1803,1,30,1
27.24468565,0,1,30,1
27.25256371,1678,1,30,1
27.26562691,0,1,30,1
27.27348709,1642,1,30,1
27.28399706,0,1,30,1
27.29582024,1658,1,30,1
27.3061974,0,1,30,1
27.31591535,2019,1,30,1
27.31790972,0,1,30,1
27.33617735,1702,1,30,1
27.34608889,0,1,30,1
27.3540287,1568,1,30,1
27.3651762,0,1,30,1
27.374614,1543,1,30,1
27.38610196,0,1,30,1
27.395926,1520,1,30,1
27.40418053,0,1,30,1
27.41580677,1586,1,30,1
27.4205339,0,1,30,1
27.43587732,1507,1,30,1
27.44617844,0,1,30,1
27.4538691,1578,1,30,1
27.46556425,1815,1,30,1
27.47541165,1590,1,30,1
27.48635149,2608,1,30,1
27.4963336,1544,1,30,1
27.50594854,2323,1,30,1
27.51581335,1499,1,30,1
27.52052975,1365,1,30,1
27.53615403,1520,1,30,1
27.54597902,1666,1,30,1
27.55489945,1358,1,30,1
27.56593871,1840,1,30,1
27.57263088,1478,1,30,1
27.58564067,1395,1,30,1
27.59600449,1376,1,30,1
27.60507083,1755,1,30,1
27.61516523,1467,1,30,1
27.62588143,2032,1,30,1
27.63563752,1417,1,30,1
27.64368033,2545,1,30,1
27.65397549,1486,1,30,1
27.66610456,667,1,30,1
27.67171001,1441,1,30,1
27.68541265,0,1,30,1
27.69526458,1393,1,30,1
27.70340872,0,1,30,1
27.7159965,1382,1,30,1
27.7213912,2251,1,30,1
27.7358706,1358,1,30,1
27.7459631,2543,1,30,1
27.75208545,1319,1,30,1
27.7656889,2265,1,30,1
27.768852,1314,1,30,1
27.78538346,611,1,30,1
27.79584885,1406,1,30,1
27.80642509,720,1,30,1
27.81572032,1434,1,30,1
27.82090139,1216,1,30,1
27.83508921,1255,1,30,1
27.84594631,245,1,30,1
27.85213709,1082,1,30,1
27.86599278,2283,1,30,1
27.86927772,1685,1,30,1
27.88606906,300,1,30,1
27.89517808,1475,1,30,1
27.90609741,2423,1,30,1
27.91559386,1434,1,30,1
27.92005396,0,1,30,1
27.93592668,1110,1,30,1
27.9456284,0,1,30,1
27.95208836,1399,1,30,1
27.96469855,0,1,30,1
27.97271609,1509,1,30,1
27.98547769,0,1,30,1
27.99562693,1314,1,30,1
28.00373769,0,1,30,1
28.01614618,1105,1,30,1
28.02616382,0,1,30,1
28.03599334,1473,1,30,1
28.0460403,1276,1,30,1
28.05335593,0,1,30,1
28.06591702,1424,1,30,1
28.07312155,0,1,30,1
28.08567309,1122,1,30,1
28.09600043,0,1,30,1
28.10446811,1767,1,30,1
28.11580205,0,1,30,1
28.11844182,1808,1,30,1
28.13564849,0,1,30,1
28.14583158,1691,1,30,1
28.15647674,0,1,30,1
28.16566777,1808,1,30,1
28.17193055,0,1,30,1
28.18524027,1575,1,30,1
28.19570565,494,1,30,1
28.20293522,1360,1,30,1
28.21582723,959,1,30,1
28.22584367,1264,1,30,1
28.23603916,0,1,30,1
28.24588156,979,1,30,1
28.25669408,965,1,30,1
28.26646376,1046,1,30,1
28.27409101,0,1,30,1
28.2854197,1104,1,30,1
28.29577875,0,1,30,1
28.30631018,1040,1,30,1
28.31555867,0,1,30,1
28.32645488,1017,1,30,1
28.33542395,0,1,30,1
28.34534097,986,1,30,1
28.35572481,0,1,30,1
28.36555743,1041,1,30,1
28.37243152,0,1,30,1
28.38542533,1022,1,30,1
28.39353991,0,1,30,1
28.4064312,926,1,30,1
28.41598248,0,1,30,1
28.4263494,941,1,30,1
28.43550396,0,1,30,1
28.44604588,927,1,30,1
28.45595145,0,1,30,1
28.46568561,912,1,30,1
28.47107291,0,1,30,1
28.4864068,912,1,30,1
28.4957056,2610,1,30,1
28.50316882,884,1,30,1
28.51583171,0,1,30,1
28.52034688,910,1,30,1
28.53604603,0,1,30,1
28.54612803,897,1,30,1
28.55573177,797,1,30,1
28.56586909,870,1,30,1
28.57090425,2480,1,30,1
28.5864656,874,1,30,1
28.59494543,0,1,30,1
28.60439754,843,1,30,1
28.61543465,0,1,30,1
28.61879373,849,1,30,1
28.63559198,2512,1,30,1
28.64528799,829,1,30,1
28.65556359,2634,1,30,1
28.66614461,848,1,30,1
28.67208672,2640,1,30,1
28.68485332,798,1,30,1
28.69536686,2557,1,30,1
28.70440841,807,1,30,1
28.71535945,2634,1,30,1
28.7245574,789,1,30,1
28.7357595,2559,1,30,1
28.74592352,777,1,30,1
28.75625229,2531,1,30,1
28.76576638,743,1,30,1
28.7751255,2512,1,30,1
28.78620124,746,1,30,1
28.79586792,2547,1,30,1
28.80369782,706,1,30,1
28.81578445,2219,1,30,1
28.82433724,912,1,30,1
28.83536768,2091,1,30,1
28.84504652,718,1,30,1
28.8554306,553,1,30,1
28.86534071,745,1,30,1
28.87540174,1808,1,30,1
28.88622689,753,1,30,1
28.89605904,1275,1,30,1
28.90108418,710,1,30,1
28.91542983,2270,1,30,1
28.91768551,690,1,30,1
28.93655419,2582,1,30,1
28.94608712,720,1,30,1
28.95121765,2222,1,30,1
28.9655273,666,1,30,1
28.97669148,2356,1,30,1
28.98572612,591,1,30,1
28.9960947,2241,1,30,1
29.00268292,455,1,30,1
29.01590586,2033,1,30,1
29.02509832,630,1,30,1
29.03372455,1363,1,30,1
29.04580259,643,1,30,1
29.05576968,1947,1,30,1
29.06577063,636,1,30,1
29.07015276,2015,1,30,1
29.08573484,592,1,30,1
29.09565234,1901,1,30,1
29.10626268,604,1,30,1
29.11549687,1648,1,30,1
29.12028193,1627,1,30,1
29.13594103,1904,1,30,1
29.14574003,573,1,30,1
29.15611219,0,1,30,1
29.16535497,1895,1,30,1
29.17668247,1503,1,30,1
29.18613863,1387,1,30,1
29.1957655,365,1,30,1
29.2038703,1185,1,30,1
29.21587396,2352,1,30,1
29.21986532,170,1,30,1
29.23537922,0,1,30,1
29.24634171,1853,1,30,1
29.2500515,1214,1,30,1
29.26600552,1390,1,30,1
29.2738893,1379,1,30,1
29.28592443,1489,1,30,1
29.29564977,1359,1,30,1
29.30325079,1681,1,30,1
29.31614685,1497,1,30,1
29.32670212,1476,1,30,1
29.33569264,1042,1,30,1
29.34446454,339,1,30,1
29.35644674,1654,1,30,1
29.36593795,1744,1,30,1
29.37666678,1712,1,30,1
29.38548017,1882,1,30,1
29.39585161,1680,1,30,1
29.40353823,1168,1,30,1
29.41561437,1516,1,30,1
29.42422771,1424,1,30,1
29.43548298,1478,1,30,1
29.44590116,1616,1,30,1
29.45383382,1338,1,30,1
29.46620154,2031,1,30,1
29.47607136,1506,1,30,1
29.48604441,1895,1,30,1
29.49559736,1482,1,30,1
29.5039885,1984,1,30,1
29.51535392,1520,1,30,1
29.52097797,415,1,30,1
29.53606749,0,1,30,1
29.54452848,475,1,30,1
29.55003858,0,1,30,1
29.56491804,448,1,30,1
29.57491755,0,1,30,1
29.58426118,405,1,30,1
29.59323502,0,1,30,1
29.60446858,457,1,30,1
29.61520052,0,1,30,1
29.61830688,373,1,30,1
29.63487315,0,1,30,1
29.64544249,421,1,30,1
29.6537919,0,1,30,1
29.66526628,352,1,30,1
29.67610836,0,1,30,1
29.68607879,315,1,30,1
29.69623089,0,1,30,1
29.70632672,274,1,30,1
29.7156291,0,1,30,1
29.72369003,574,1,30,1
29.73545885,0,1,30,1
29.74568248,336,1,30,1
29.75631595,0,1,30,1
29.76612592,415,1,30,1
29.77676702,0,1,30,1
29.78558421,336,1,30,1
29.79603076,0,1,30,1
29.80663681,333,1,30,1
29.81615186,0,1,30,1
29.82659936,2109,1,30,1
29.82995033,0,1,30,1
29.84399819,363,1,30,1
29.85616517,0,1,30,1
29.86533713,362,1,30,1
29.87660718,0,1,30,1
29.88567138,358,1,30,1
29.89588189,0,1,30,1
29.90592551,486,1,30,1
29.91556549,0,1,30,1
29.92783713,2107,1,30,1
29.93617988,0,1,30,1
29.94317698,2166,1,30,1
29.95609093,401,1,30,1
29.96609545,1993,1,30,1
29.97657013,0,1,30,1
29.98574448,1663,1,30,1
29.99547672,0,1,30,1
