Timestamp,EMG Value,massage_speed,massage_duration,relaxment_level
0.000998259,1722,1,30,1
0.011031389,0,1,30,1
0.021040201,1883,1,30,1
0.031042099,0,1,30,1
0.042161942,1776,1,30,1
0.057243109,0,1,30,1
0.067250729,1712,1,30,1
0.067250729,0,1,30,1
0.078470707,1815,1,30,1
0.088514566,0,1,30,1
0.098517656,1831,1,30,1
0.108516693,0,1,30,1
0.118514776,1803,1,30,1
0.128514767,0,1,30,1
0.138514757,1678,1,30,1
0.148515224,0,1,30,1
0.158514738,1642,1,30,1
0.169783592,0,1,30,1
0.179827213,1658,1,30,1
0.189827919,0,1,30,1
0.205360413,2019,1,30,1
0.214947701,0,1,30,1
0.224951506,1702,1,30,1
0.232214451,0,1,30,1
0.240220547,1568,1,30,1
0.248864651,0,1,30,1
0.258906126,1543,1,30,1
0.268906832,0,1,30,1
0.278906345,1520,1,30,1
0.288907051,0,1,30,1
0.29890728,1586,1,30,1
0.308906078,0,1,30,1
0.318906307,1507,1,30,1
0.328906536,0,1,30,1
0.338906288,1578,1,30,1
0.355240822,1815,1,30,1
0.365244389,1590,1,30,1
0.376827955,2608,1,30,1
0.376827955,1544,1,30,1
0.386840582,2323,1,30,1
0.398180723,1499,1,30,1
0.408178568,1365,1,30,1
0.425692081,1520,1,30,1
0.433167458,1666,1,30,1
0.441194057,1358,1,30,1
0.448827982,1840,1,30,1
0.465492487,1478,1,30,1
0.46935153,1395,1,30,1
0.482036591,1376,1,30,1
0.493211031,1755,1,30,1
0.503217459,1467,1,30,1
0.514445543,2032,1,30,1
0.524457216,1417,1,30,1
0.534457207,2545,1,30,1
0.544458389,1486,1,30,1
0.554457188,667,1,30,1
0.565888166,1441,1,30,1
0.575894356,0,1,30,1
0.585891485,1393,1,30,1
0.595891714,0,1,30,1
0.605892658,1382,1,30,1
0.615903854,2251,1,30,1
0.625900507,1358,1,30,1
0.625900507,2543,1,30,1
0.645928621,1319,1,30,1
0.652993679,2265,1,30,1
0.665266275,1314,1,30,1
0.672996998,611,1,30,1
0.682118416,1406,1,30,1
0.688467741,720,1,30,1
0.705782175,1434,1,30,1
0.715885639,1216,1,30,1
0.719156265,1255,1,30,1
0.734433651,245,1,30,1
0.744440794,1082,1,30,1
0.755959749,2283,1,30,1
0.765963078,1685,1,30,1
0.772868395,300,1,30,1
0.782909393,1475,1,30,1
0.795828581,2423,1,30,1
0.804559708,1434,1,30,1
0.815205336,0,1,30,1
0.825566053,1110,1,30,1
0.835301638,0,1,30,1
0.842977285,1399,1,30,1
0.850640059,0,1,30,1
0.865903139,1509,1,30,1
0.874689817,0,1,30,1
0.882832289,1314,1,30,1
0.895722151,0,1,30,1
0.899708271,1105,1,30,1
0.914510965,0,1,30,1
0.918030024,1473,1,30,1
0.932207823,560,1,30,1
0.942547798,1391,1,30,1
0.948932409,0,1,30,1
0.965295315,1382,1,30,1
0.975301266,76,1,30,1
0.985301256,1342,1,30,1
0.995401144,0,1,30,1
0.996400356,1376,1,30,1
1.006407022,0,1,30,1
1.021218061,1366,1,30,1
1.033627987,0,1,30,1
1.046024084,1357,1,30,1
1.056037426,0,1,30,1
1.065630674,1351,1,30,1
1.075984478,0,1,30,1
1.084451437,1328,1,30,1
1.095715284,0,1,30,1
1.102335691,1266,1,30,1
1.11538744,0,1,30,1
1.125396967,1261,1,30,1
1.134108782,0,1,30,1
1.141947508,1244,1,30,1
1.150384426,0,1,30,1
1.165055037,1279,1,30,1
1.173228979,0,1,30,1
1.186214685,1250,1,30,1
1.195724726,0,1,30,1
1.202124357,1232,1,30,1
1.215017319,0,1,30,1
1.225575447,1216,1,30,1
1.232962132,0,1,30,1
1.242076874,1201,1,30,1
1.249167919,0,1,30,1
1.26573348,1194,1,30,1
1.275189638,0,1,30,1
1.28538847,1167,1,30,1
1.295508146,0,1,30,1
1.305631161,1155,1,30,1
1.315443754,455,1,30,1
1.325315237,1139,1,30,1
1.335243225,0,1,30,1
1.341330051,1276,1,30,1
1.356194973,0,1,30,1
1.364329576,1424,1,30,1
1.370633364,0,1,30,1
1.385700464,1122,1,30,1
1.389280558,0,1,30,1
1.403506517,1767,1,30,1
1.415509224,0,1,30,1
1.424453974,1808,1,30,1
1.433157206,0,1,30,1
1.441194534,1691,1,30,1
1.449294567,0,1,30,1
1.465786934,1808,1,30,1
1.473816872,0,1,30,1
1.482577562,1575,1,30,1
1.495681047,494,1,30,1
1.502340794,1360,1,30,1
1.515892267,959,1,30,1
1.525481224,1264,1,30,1
1.533887386,0,1,30,1
1.542836666,979,1,30,1
1.555210829,965,1,30,1
1.56536746,1046,1,30,1
1.57595849,0,1,30,1
1.585147619,1104,1,30,1
1.596018791,0,1,30,1
1.601177216,1040,1,30,1
1.615792513,0,1,30,1
1.624822378,1017,1,30,1
1.632446051,0,1,30,1
1.640464067,986,1,30,1
1.650358677,0,1,30,1
1.666031837,1041,1,30,1
1.671646595,0,1,30,1
1.685417414,1022,1,30,1
1.694573164,0,1,30,1
1.700725794,926,1,30,1
1.715226412,0,1,30,1
1.724279881,941,1,30,1
1.736010075,0,1,30,1
1.740367174,927,1,30,1
1.754653454,0,1,30,1
1.765324354,912,1,30,1
1.770376682,0,1,30,1
1.785913229,912,1,30,1
1.785913229,2610,1,30,1
1.804051161,884,1,30,1
1.81561327,0,1,30,1
1.824759483,910,1,30,1
1.835395098,0,1,30,1
1.841104031,897,1,30,1
1.85557127,797,1,30,1
1.865939856,870,1,30,1
1.870784044,2480,1,30,1
1.885173321,874,1,30,1
1.894570112,0,1,30,1
1.902281284,843,1,30,1
1.915835857,0,1,30,1
1.924669981,849,1,30,1
1.935820818,2512,1,30,1
1.945391893,829,1,30,1
1.955910921,2634,1,30,1
1.965367079,848,1,30,1
1.975200415,2640,1,30,1
1.985274315,798,1,30,1
1.992398739,2557,1,30,1
2.000335932,807,1,30,1
2.016023397,2634,1,30,1
2.025191069,789,1,30,1
2.032378197,2559,1,30,1
2.038316011,777,1,30,1
2.055919647,2531,1,30,1
2.06593585,743,1,30,1
2.07593441,2512,1,30,1
2.084452629,746,1,30,1
2.093551636,2547,1,30,1
2.098935127,706,1,30,1
2.115666628,2219,1,30,1
2.124675274,912,1,30,1
2.132597923,2091,1,30,1
2.141167879,718,1,30,1
2.155639887,553,1,30,1
2.165937185,745,1,30,1
2.174919844,1808,1,30,1
2.185271978,753,1,30,1
2.195405483,1275,1,30,1
2.201117754,710,1,30,1
2.215577602,2270,1,30,1
2.22603035,690,1,30,1
2.232827902,2582,1,30,1
2.245891809,720,1,30,1
2.255485296,2222,1,30,1
2.266116142,666,1,30,1
2.271128654,2356,1,30,1
2.28503561,591,1,30,1
2.292774677,2241,1,30,1
2.300408602,455,1,30,1
2.315611362,2033,1,30,1
2.323673964,630,1,30,1
2.333536148,1363,1,30,1
2.34155035,643,1,30,1
2.34901619,1947,1,30,1
2.366081476,636,1,30,1
2.375518322,2015,1,30,1
2.382338524,592,1,30,1
2.392011166,1901,1,30,1
2.398684263,604,1,30,1
2.415482521,1648,1,30,1
2.426254272,1627,1,30,1
2.432437181,1904,1,30,1
2.440451145,573,1,30,1
2.452750921,0,1,30,1
2.464900017,1895,1,30,1
2.468122721,1503,1,30,1
2.483430624,1387,1,30,1
2.491435051,365,1,30,1
2.499261618,1185,1,30,1
2.51544261,2352,1,30,1
2.524615288,170,1,30,1
2.535994053,0,1,30,1
2.545990467,1853,1,30,1
2.55365181,1214,1,30,1
2.566062212,1390,1,30,1
2.575792551,1379,1,30,1
2.585024834,1489,1,30,1
2.595226526,1359,1,30,1
2.599891901,1681,1,30,1
2.615894556,1497,1,30,1
2.621829987,1476,1,30,1
2.631877661,1042,1,30,1
2.645916939,339,1,30,1
2.655848503,1654,1,30,1
2.665505409,1744,1,30,1
2.675333738,1712,1,30,1
2.68580842,1882,1,30,1
2.692497253,1680,1,30,1
2.704992294,1168,1,30,1
2.71407342,1516,1,30,1
2.72520566,1424,1,30,1
2.735455036,1478,1,30,1
2.744380474,1616,1,30,1
2.755241632,1338,1,30,1
2.764028549,2031,1,30,1
2.775397062,1506,1,30,1
2.785519361,1895,1,30,1
2.789695501,1482,1,30,1
2.805574417,1984,1,30,1
2.815233946,1520,1,30,1
2.824368477,1921,1,30,1
2.835120916,971,1,30,1
2.840647221,1895,1,30,1
2.856047153,389,1,30,1
2.864051342,1505,1,30,1
2.875023842,2559,1,30,1
2.885042191,1178,1,30,1
2.890707493,1493,1,30,1
2.905193329,1359,1,30,1
2.915454149,2413,1,30,1
2.922411442,1402,1,30,1
2.93570137,1987,1,30,1
2.945293427,1325,1,30,1
2.954781294,1426,1,30,1
2.964781523,1411,1,30,1
2.97600913,1366,1,30,1
2.983415842,1488,1,30,1
2.993438244,1379,1,30,1
3.005829334,1659,1,30,1
3.015290499,1237,1,30,1
3.024113417,1549,1,30,1
3.035881042,1616,1,30,1
3.044821739,1291,1,30,1
3.052428484,1551,1,30,1
3.065934896,1072,1,30,1
3.075279236,1390,1,30,1
3.085647583,857,1,30,1
3.093286991,1268,1,30,1
3.105331659,673,1,30,1
3.115042686,1355,1,30,1
3.125358105,1135,1,30,1
3.135093689,1328,1,30,1
3.143394709,1199,1,30,1
3.155194521,1301,1,30,1
3.165043116,1040,1,30,1
3.174087524,1285,1,30,1
3.185817003,736,1,30,1
3.189119577,1314,1,30,1
3.205790997,743,1,30,1
3.215000629,1466,1,30,1
3.225618124,711,1,30,1
3.235750914,1725,1,30,1
3.2443645,468,1,30,1
3.253587484,2345,1,30,1
3.265259981,464,1,30,1
3.272775173,1011,1,30,1
3.285901546,501,1,30,1
3.290727854,0,1,30,1
3.305556536,413,1,30,1
3.314998865,0,1,30,1
3.323031187,393,1,30,1
3.332671404,0,1,30,1
3.345123291,386,1,30,1
3.351706982,0,1,30,1
3.365586758,464,1,30,1
3.375588655,0,1,30,1
3.381742239,401,1,30,1
3.390142918,0,1,30,1
3.405616283,388,1,30,1
3.415760994,0,1,30,1
3.4255054,400,1,30,1
3.435229301,0,1,30,1
3.445477009,250,1,30,1
3.452859879,0,1,30,1
3.465483189,336,1,30,1
3.474390984,0,1,30,1
3.481661797,348,1,30,1
3.49262166,0,1,30,1
3.498156309,366,1,30,1
3.516119719,0,1,30,1
3.520637512,368,1,30,1
3.535886765,0,1,30,1
3.545551062,312,1,30,1
3.551517248,0,1,30,1
3.565881491,324,1,30,1
3.574839354,0,1,30,1
3.585552692,992,1,30,1
3.592358589,400,1,30,1
3.606016636,1136,1,30,1
3.613916159,557,1,30,1
3.625684023,1099,1,30,1
3.635926247,411,1,30,1
3.645949602,991,1,30,1
3.655176163,333,1,30,1
3.66540885,962,1,30,1
3.674475431,177,1,30,1
3.685052633,880,1,30,1
3.689566374,0,1,30,1
3.704695463,716,1,30,1
3.715899229,0,1,30,1
3.725869417,537,1,30,1
3.734299421,0,1,30,1
3.742582798,341,1,30,1
3.756018639,0,1,30,1
3.765661955,434,1,30,1
3.774650812,0,1,30,1
3.785996437,649,1,30,1
3.796194077,0,1,30,1
3.798505306,511,1,30,1
3.815135956,0,1,30,1
3.823154449,500,1,30,1
3.835738659,4095,1,30,1
3.837212563,1563,1,30,1
3.854763031,4095,1,30,1
3.865888119,2115,1,30,1
3.876056433,4095,1,30,1
3.883317947,2160,1,30,1
3.895700932,4095,1,30,1
3.89910078,1966,1,30,1
3.914769173,4095,1,30,1
3.924813986,1975,1,30,1
3.927536249,4095,1,30,1
3.937574625,1974,1,30,1
3.950376511,4095,1,30,1
3.965057611,1833,1,30,1
3.976000071,4095,1,30,1
3.982294559,1977,1,30,1
3.995179892,4095,1,30,1
4.004980803,1827,1,30,1
4.016097307,4095,1,30,1
4.025317907,1897,1,30,1
4.035924435,4095,1,30,1
4.041812658,1869,1,30,1
4.055515289,4095,1,30,1
4.064899921,1791,1,30,1
4.075325489,4095,1,30,1
4.085887671,2032,1,30,1
4.094906092,4095,1,30,1
4.10485816,1737,1,30,1
4.114856005,4095,1,30,1
4.124617577,1899,1,30,1
4.135878563,4095,1,30,1
4.140969515,1926,1,30,1
4.155410528,4095,1,30,1
4.165126801,1858,1,30,1
4.171673059,4095,1,30,1
4.185751438,2064,1,30,1
4.190748692,4095,1,30,1
4.205205202,1790,1,30,1
4.213766575,4095,1,30,1
4.225043058,1990,1,30,1
4.235501528,4095,1,30,1
4.243183851,2256,1,30,1
4.254688978,4095,1,30,1
4.264972448,358,1,30,1
4.275337696,4095,1,30,1
4.284671068,368,1,30,1
4.295318365,4095,1,30,1
4.305125952,338,1,30,1
4.315080166,4095,1,30,1
4.325207233,269,1,30,1
4.335657358,2043,1,30,1
4.343906641,153,1,30,1
4.355483055,0,1,30,1
4.364826679,128,1,30,1
4.371441126,0,1,30,1
4.385030508,112,1,30,1
4.388506651,4095,1,30,1
4.406073809,662,1,30,1
4.413725138,4095,1,30,1
4.424796104,955,1,30,1
4.435625315,4095,1,30,1
4.441426039,1233,1,30,1
4.455759048,4095,1,30,1
4.463726759,1471,1,30,1
4.475754023,4095,1,30,1
4.484939575,1745,1,30,1
4.494996309,3760,1,30,1
4.505298853,735,1,30,1
4.514739037,0,1,30,1
4.524644375,1615,1,30,1
4.535804033,1397,1,30,1
4.541619778,2496,1,30,1
4.555783033,1471,1,30,1
4.565757036,2651,1,30,1
4.574310303,1497,1,30,1
4.586135149,2439,1,30,1
4.593830585,1648,1,30,1
4.605758667,239,1,30,1
4.613674641,1520,1,30,1
4.625841618,240,1,30,1
4.635033131,1439,1,30,1
4.64191556,134,1,30,1
4.655429602,1229,1,30,1
4.663675547,3050,1,30,1
4.673866034,951,1,30,1
4.685862064,3057,1,30,1
4.693508387,1191,1,30,1
4.70543313,3650,1,30,1
4.715040684,775,1,30,1
4.725939751,2945,1,30,1
4.73494029,48,1,30,1
4.742141724,2719,1,30,1
4.755110025,39,1,30,1
4.765874863,1575,1,30,1
4.775758266,429,1,30,1
4.786094904,1174,1,30,1
4.788432598,421,1,30,1
4.805446148,436,1,30,1
4.814981937,150,1,30,1
4.825707912,749,1,30,1
4.835275173,1115,1,30,1
4.841218472,2439,1,30,1
4.85575366,2105,1,30,1
4.864768982,38,1,30,1
4.873930216,1807,1,30,1
4.885363817,4095,1,30,1
4.894847631,1782,1,30,1
4.90541482,4095,1,30,1
4.915073156,1863,1,30,1
4.924678087,75,1,30,1
4.935734987,1968,1,30,1
4.940412998,0,1,30,1
4.955575705,1941,1,30,1
4.96495986,0,1,30,1
4.975993156,2045,1,30,1
4.985007524,0,1,30,1
4.995750427,2041,1,30,1
5.005292892,0,1,30,1
5.015251398,2047,1,30,1
5.02476573,0,1,30,1
5.035851955,1344,1,30,1
5.042063713,0,1,30,1
5.055676699,435,1,30,1
5.066011429,0,1,30,1
5.075770855,1750,1,30,1
5.085968733,0,1,30,1
5.093972921,2354,1,30,1
5.103708982,0,1,30,1
5.115432739,1981,1,30,1
5.125287771,2645,1,30,1
5.1357162,1929,1,30,1
5.145228624,2807,1,30,1
5.155155659,1984,1,30,1
5.163642645,2852,1,30,1
5.17557168,1792,1,30,1
5.184984922,2448,1,30,1
5.192753792,1823,1,30,1
5.205328465,2589,1,30,1
5.215479374,1810,1,30,1
5.225573301,2352,1,30,1
5.231237411,1812,1,30,1
5.240246058,2775,1,30,1
5.25579071,1757,1,30,1
5.265785217,2832,1,30,1
5.271217108,1841,1,30,1
5.285504103,2753,1,30,1
5.292953968,2578,1,30,1
5.305398226,554,1,30,1
5.315918207,1933,1,30,1
5.323090076,1173,1,30,1
5.335579395,1405,1,30,1
5.345672369,0,1,30,1
5.348845243,1719,1,30,1
5.366303444,2394,1,30,1
5.369330883,1713,1,30,1
5.384071827,2124,1,30,1
5.393187284,1811,1,30,1
5.398524523,2360,1,30,1
5.416087866,1562,1,30,1
5.424095154,1425,1,30,1
5.43198204,884,1,30,1
5.439989328,1725,1,30,1
5.448472261,1723,1,30,1
5.465240479,2137,1,30,1
5.475880623,1616,1,30,1
5.485854387,2639,1,30,1
5.493857861,1641,1,30,1
5.498731613,2421,1,30,1
5.515108109,1675,1,30,1
5.525405407,2352,1,30,1
5.534807682,1686,1,30,1
5.538344145,2304,1,30,1
5.555819988,1721,1,30,1
5.565490961,2854,1,30,1
5.569447994,1615,1,30,1
5.58574605,2762,1,30,1
5.594466448,1616,1,30,1
5.600561619,2143,1,30,1
5.615390778,1638,1,30,1
5.622548103,2383,1,30,1
5.633364439,1609,1,30,1
5.641399622,2251,1,30,1
5.648385286,1573,1,30,1
5.665983677,1989,1,30,1
5.676022053,1094,1,30,1
5.683400869,1237,1,30,1
5.692600727,1257,1,30,1
5.698483229,800,1,30,1
5.715137243,1629,1,30,1
5.723195076,1143,1,30,1
5.731646776,114,1,30,1
5.745321274,2118,1,30,1
5.751415014,1520,1,30,1
5.765181303,1453,1,30,1
5.774996519,2141,1,30,1
5.785988569,2499,1,30,1
5.793993235,511,1,30,1
5.79799366,2679,1,30,1
5.816277981,1409,1,30,1
5.824288368,1441,1,30,1
5.831921339,1703,1,30,1
5.845748186,1415,1,30,1
5.852511406,1456,1,30,1
5.86510396,1186,1,30,1
5.875390053,1230,1,30,1
5.885794401,1776,1,30,1
5.892095804,879,1,30,1
5.899849892,705,1,30,1
5.915816545,709,1,30,1
5.92592001,1057,1,30,1
5.935579538,1344,1,30,1
5.945391178,885,1,30,1
5.954970598,1862,1,30,1
5.963426352,1214,1,30,1
5.975564241,835,1,30,1
5.985621691,759,1,30,1
5.99326849,848,1,30,1
6.005889654,1250,1,30,1
6.015595436,1076,1,30,1
6.024822474,1241,1,30,1
6.035270214,1908,1,30,1
6.044010878,1941,1,30,1
6.048200369,1520,1,30,1
6.065563679,1599,1,30,1
6.076142788,1594,1,30,1
6.085803747,1554,1,30,1
6.091511488,1590,1,30,1
6.106022358,1767,1,30,1
6.11533308,1545,1,30,1
6.125355721,2411,1,30,1
6.135637522,1316,1,30,1
6.142827749,1201,1,30,1
6.15498662,1296,1,30,1
6.165806532,1225,1,30,1
6.17306447,1141,1,30,1
6.186685085,1197,1,30,1
6.186685085,1138,1,30,1
6.200889111,1197,1,30,1
6.215596437,1154,1,30,1
6.225595474,443,1,30,1
6.235622883,903,1,30,1
6.245103836,1535,1,30,1
6.25592041,1347,1,30,1
6.265478849,958,1,30,1
6.273612499,908,1,30,1
6.285345793,719,1,30,1
6.289069414,757,1,30,1
6.305725813,833,1,30,1
6.315355539,212,1,30,1
6.322315216,1040,1,30,1
6.334790468,1078,1,30,1
6.343271494,1945,1,30,1
6.355451822,1003,1,30,1
6.36548543,876,1,30,1
6.375413895,1161,1,30,1
6.380009651,962,1,30,1
6.395489454,850,1,30,1
6.405287743,863,1,30,1
6.415533543,958,1,30,1
6.421067476,852,1,30,1
6.435471296,930,1,30,1
6.443023205,838,1,30,1
6.455500364,907,1,30,1
6.465117455,832,1,30,1
6.473767042,891,1,30,1
6.485469341,809,1,30,1
6.490029097,898,1,30,1
6.504448175,799,1,30,1
6.515516758,1035,1,30,1
6.523672581,822,1,30,1
6.535450935,548,1,30,1
6.54339385,843,1,30,1
6.554755211,1281,1,30,1
6.565861702,1178,1,30,1
6.575523376,1434,1,30,1
6.58470726,710,1,30,1
6.595874071,1383,1,30,1
6.606038332,720,1,30,1
6.615477324,1431,1,30,1
6.625279665,1066,1,30,1
6.635331631,1205,1,30,1
6.642520428,1072,1,30,1
6.655951262,1161,1,30,1
6.665682077,937,1,30,1
6.674308777,960,1,30,1
6.685207844,845,1,30,1
6.690251589,641,1,30,1
6.706054688,635,1,30,1
6.715600014,814,1,30,1
6.722272873,685,1,30,1
6.731498241,720,1,30,1
6.739545822,371,1,30,1
6.755212069,1275,1,30,1
6.765431881,767,1,30,1
6.774346352,720,1,30,1
6.782679319,1248,1,30,1
6.792663336,163,1,30,1
6.805288792,176,1,30,1
6.815293789,1319,1,30,1
6.822620869,479,1,30,1
6.831394434,240,1,30,1
6.839446545,0,1,30,1
6.84869647,621,1,30,1
6.865389824,244,1,30,1
6.87355423,1599,1,30,1
6.881999969,933,1,30,1
6.890028954,62,1,30,1
6.901236773,208,1,30,1
6.915508747,1123,1,30,1
6.925758362,418,1,30,1
6.931923389,210,1,30,1
6.941964865,0,1,30,1
6.948785067,708,1,30,1
6.965312719,528,1,30,1
6.975329161,1708,1,30,1
6.981992006,752,1,30,1
6.995937109,597,1,30,1
7.004502535,164,1,30,1
7.01569128,1153,1,30,1
7.021549702,554,1,30,1
7.035192728,573,1,30,1
7.045693159,647,1,30,1
7.055541039,214,1,30,1
7.065842867,171,1,30,1
7.07599926,1591,1,30,1
7.085089207,702,1,30,1
7.088083744,2370,1,30,1
7.097956419,80,1,30,1
7.115369081,1005,1,30,1
7.126470327,357,1,30,1
7.135119915,175,1,30,1
7.141387463,64,1,30,1
7.155800343,400,1,30,1
7.165085077,137,1,30,1
7.173100471,1360,1,30,1
7.180901766,646,1,30,1
7.191616058,2378,1,30,1
7.205668688,35,1,30,1
7.215712309,821,1,30,1
7.225716591,267,1,30,1
7.233351707,186,1,30,1
7.245717049,0,1,30,1
7.255562067,305,1,30,1
7.265615225,112,1,30,1
7.271784067,834,1,30,1
7.283338785,534,1,30,1
7.295633316,210,1,30,1
7.306090117,111,1,30,1
7.316185236,607,1,30,1
7.325455666,369,1,30,1
7.333169937,325,1,30,1
7.342256546,208,1,30,1
7.349427223,335,1,30,1
7.365995169,319,1,30,1
7.373999119,400,1,30,1
7.38180089,2359,1,30,1
7.390643358,1109,1,30,1
7.398799896,229,1,30,1
7.415441751,602,1,30,1
7.426167965,299,1,30,1
7.435415268,400,1,30,1
7.445189714,144,1,30,1
7.449241877,440,1,30,1
7.465310574,208,1,30,1
7.475941896,739,1,30,1
7.48316741,1610,1,30,1
7.49500227,85,1,30,1
7.501974583,0,1,30,1
7.514941931,632,1,30,1
7.52534461,505,1,30,1
7.532890797,253,1,30,1
7.541973114,403,1,30,1
7.548279047,350,1,30,1
7.565068245,804,1,30,1
7.571092606,298,1,30,1
7.581552744,976,1,30,1
7.589559317,265,1,30,1
7.59817028,746,1,30,1
7.614979744,336,1,30,1
7.625034571,2014,1,30,1
7.633072138,219,1,30,1
7.645704746,619,1,30,1
7.655250311,239,1,30,1
7.663817883,1334,1,30,1
7.67264533,241,1,30,1
7.686357737,1495,1,30,1
7.69658041,192,1,30,1
7.698873281,1197,1,30,1
7.714289427,362,1,30,1
7.72326684,1971,1,30,1
7.730859518,251,1,30,1
7.746566534,618,1,30,1
7.748713493,282,1,30,1
7.765191555,768,1,30,1
7.774213314,262,1,30,1
7.785523415,607,1,30,1
7.794512987,163,1,30,1
7.806088209,305,1,30,1
7.815453053,334,1,30,1
7.818861008,605,1,30,1
7.833794355,313,1,30,1
7.84269762,144,1,30,1
7.855183125,215,1,30,1
7.865676403,290,1,30,1
7.87174511,240,1,30,1
7.886185646,240,1,30,1
7.895545483,144,1,30,1
7.90564394,63,1,30,1
7.915541172,304,1,30,1
7.925477266,208,1,30,1
7.935315847,188,1,30,1
7.940401554,0,1,30,1
7.955469847,90,1,30,1
7.96595335,64,1,30,1
7.973023891,208,1,30,1
7.985794067,75,1,30,1
7.99486208,1629,1,30,1
8.005404711,2402,1,30,1
8.015291452,277,1,30,1
8.024583817,604,1,30,1
8.035042048,1110,1,30,1
8.044937134,688,1,30,1
8.055622816,505,1,30,1
8.063866138,0,1,30,1
8.07524395,141,1,30,1
8.085844517,528,1,30,1
8.092560768,548,1,30,1
8.102256298,0,1,30,1
8.115539551,1296,1,30,1
8.125700951,272,1,30,1
8.133727789,592,1,30,1
8.145635605,699,1,30,1
8.1557374,0,1,30,1
8.15773344,0,1,30,1
8.175819874,554,1,30,1
8.185807467,188,1,30,1
8.185807467,236,1,30,1
8.201892138,382,1,30,1
8.214948893,162,1,30,1
8.22488308,179,1,30,1
8.230931759,243,1,30,1
8.245280743,108,1,30,1
8.246276617,192,1,30,1
8.256287098,85,1,30,1
8.275263548,178,1,30,1
8.285713673,554,1,30,1
8.293412924,6,1,30,1
8.29999423,1746,1,30,1
8.315780163,1746,1,30,1
8.323792696,1835,1,30,1
8.335882664,4095,1,30,1
8.345476389,1360,1,30,1
8.35581255,4095,1,30,1
8.365104198,2583,1,30,1
8.370123386,4095,1,30,1
8.385681152,1264,1,30,1
8.395343542,4095,1,30,1
8.405972242,2209,1,30,1
8.415980816,4095,1,30,1
8.42495203,4095,1,30,1
8.432041407,2859,1,30,1
8.445542574,1723,1,30,1
8.454890013,4095,1,30,1
8.465762854,2122,1,30,1
8.47089839,4095,1,30,1
8.485798359,2301,1,30,1
8.493466139,4095,1,30,1
8.499762535,2412,1,30,1
8.515940189,4095,1,30,1
8.5229671,1632,1,30,1
8.535958052,4095,1,30,1
8.53794384,747,1,30,1
8.551516771,4095,1,30,1
8.56549859,347,1,30,1
8.575645208,4095,1,30,1
8.585441351,304,1,30,1
8.595064878,4095,1,30,1
8.605511904,274,1,30,1
8.615179539,4095,1,30,1
8.625278234,301,1,30,1
8.635382175,4095,1,30,1
8.64491272,257,1,30,1
8.655385017,4095,1,30,1
8.665953875,238,1,30,1
8.66936326,944,1,30,1
8.685783386,48,1,30,1
8.694377422,0,1,30,1
8.705878735,1442,1,30,1
8.71574235,796,1,30,1
8.725640297,801,1,30,1
8.735651255,821,1,30,1
8.745029688,1171,1,30,1
8.755603075,864,1,30,1
8.763768673,2017,1,30,1
8.774904966,1746,1,30,1
8.785890818,1854,1,30,1
8.795340776,1751,1,30,1
8.805853605,1883,1,30,1
8.815978765,208,1,30,1
8.82518363,192,1,30,1
8.8352108,80,1,30,1
8.845009089,0,1,30,1
8.856009007,80,1,30,1
8.865734816,2431,1,30,1
8.876159668,179,1,30,1
8.885682583,277,1,30,1
8.894358635,4095,1,30,1
8.905896902,273,1,30,1
8.916101456,4095,1,30,1
8.925209045,281,1,30,1
8.935444832,4095,1,30,1
8.943897963,211,1,30,1
8.955991983,4095,1,30,1
8.965280533,139,1,30,1
8.975319862,4095,1,30,1
8.985524416,62,1,30,1
8.993816137,4095,1,30,1
9.005231142,0,1,30,1
9.015539885,4095,1,30,1
9.024262428,148,1,30,1
9.035754442,4095,1,30,1
9.043813467,92,1,30,1
9.055481672,4095,1,30,1
9.065653801,989,1,30,1
9.075048208,3324,1,30,1
9.086030245,1391,1,30,1
9.09341383,4095,1,30,1
9.105496883,1694,1,30,1
9.115820885,3173,1,30,1
9.125945091,1326,1,30,1
9.135529757,4095,1,30,1
9.14283514,1775,1,30,1
9.151739359,2446,1,30,1
9.165605068,1893,1,30,1
9.176837444,2236,1,30,1
9.182990789,1971,1,30,1
9.192697048,1962,1,30,1
9.205567122,1712,1,30,1
9.215536594,1857,1,30,1
9.223820686,1085,1,30,1
9.235227108,1633,1,30,1
9.243944407,1946,1,30,1
9.253809929,1385,1,30,1
9.265379429,1622,1,30,1
9.275494099,1490,1,30,1
9.285997391,1731,1,30,1
9.296231031,1307,1,30,1
9.305900097,1562,1,30,1
9.314990282,1296,1,30,1
9.323815346,1733,1,30,1
9.335546255,1461,1,30,1
9.346181154,1695,1,30,1
9.353839636,1267,1,30,1
9.365477562,1697,1,30,1
9.374828815,1207,1,30,1
9.385873079,1616,1,30,1
9.394964933,1375,1,30,1
9.405385256,1597,1,30,1
9.415127039,1234,1,30,1
9.425722122,1695,1,30,1
9.435199499,1191,1,30,1
9.446173668,1407,1,30,1
9.453972578,1447,1,30,1
9.465385437,1171,1,30,1
9.47405386,1406,1,30,1
9.486052275,1678,1,30,1
9.496246099,1031,1,30,1
9.504694223,2475,1,30,1
9.515677929,1738,1,30,1
9.525731087,1631,1,30,1
9.534532309,1920,1,30,1
9.545503378,256,1,30,1
9.553824425,1488,1,30,1
9.565667152,1535,1,30,1
9.573983192,1502,1,30,1
9.585224867,1488,1,30,1
9.596090317,1280,1,30,1
9.605346441,2082,1,30,1
9.615710974,560,1,30,1
9.625010014,1548,1,30,1
9.635323048,1600,1,30,1
9.646053553,1173,1,30,1
9.654707432,624,1,30,1
9.665563583,976,1,30,1
9.673007488,769,1,30,1
9.685093403,1082,1,30,1
9.695594549,1597,1,30,1
9.705835581,1398,1,30,1
9.715229273,1488,1,30,1
9.724970102,1253,1,30,1
9.734968901,1042,1,30,1
9.743751287,1216,1,30,1
9.752741814,944,1,30,1
9.765240192,1330,1,30,1
9.775843382,864,1,30,1
9.785269976,1246,1,30,1
9.792877674,907,1,30,1
9.805830956,1500,1,30,1
9.815798283,1035,1,30,1
9.824886084,1702,1,30,1
9.835620642,1118,1,30,1
9.846018791,1635,1,30,1
9.855002403,1040,1,30,1
9.865373135,1686,1,30,1
9.874147892,1034,1,30,1
9.885537148,1602,1,30,1
9.895997286,1015,1,30,1
9.905519724,1595,1,30,1
9.915303469,1105,1,30,1
9.925905943,1427,1,30,1
9.934885025,1338,1,30,1
9.946129799,1675,1,30,1
9.95519495,1094,1,30,1
9.965337515,1553,1,30,1
9.975101233,1571,1,30,1
9.984224558,1630,1,30,1
9.99537158,1605,1,30,1
10.00521493,1653,1,30,1
10.01588726,1621,1,30,1
10.02276397,1546,1,30,1
10.03500533,1555,1,30,1
10.046139,976,1,30,1
10.05471325,1543,1,30,1
10.06555271,1457,1,30,1
10.07381439,1462,1,30,1
10.08423257,1329,1,30,1
10.09613371,1531,1,30,1
10.10493374,903,1,30,1
10.1153028,1520,1,30,1
10.12381411,1397,1,30,1
10.13396025,1534,1,30,1
10.14386868,1456,1,30,1
10.15484595,1569,1,30,1
10.16573334,1377,1,30,1
10.1729176,1532,1,30,1
10.18426037,1314,1,30,1
10.19590592,1260,1,30,1
10.20299196,1083,1,30,1
10.21595097,847,1,30,1
10.2260344,1321,1,30,1
10.23588729,820,1,30,1
10.24671006,1855,1,30,1
10.25382137,1179,1,30,1
10.26521206,1635,1,30,1
10.27560401,1854,1,30,1
10.28384471,1485,1,30,1
10.29602194,2154,1,30,1
10.30347157,1430,1,30,1
10.31569624,2366,1,30,1
10.32548761,1458,1,30,1
10.33546591,1946,1,30,1
10.34453559,1809,1,30,1
10.35637951,391,1,30,1
10.36617613,1073,1,30,1
10.3738296,1435,1,30,1
10.38366389,2545,1,30,1
10.39606881,58,1,30,1
10.4050281,48,1,30,1
10.41289282,36,1,30,1
10.426157,92,1,30,1
10.43387198,0,1,30,1
10.44598794,96,1,30,1
10.45284247,0,1,30,1
10.46454453,436,1,30,1
10.47385907,123,1,30,1
10.48382878,466,1,30,1
10.49633551,335,1,30,1
10.50403547,455,1,30,1
10.51385951,368,1,30,1
10.52629185,1979,1,30,1
10.53387904,1725,1,30,1
10.54484606,1055,1,30,1
10.55585885,1510,1,30,1
10.56574416,1203,1,30,1
10.5738287,1616,1,30,1
10.58381891,1153,1,30,1
10.59610701,1648,1,30,1
10.6038413,1168,1,30,1
10.61363459,1657,1,30,1
10.62569332,1174,1,30,1
10.63544512,1502,1,30,1
10.64639854,1274,1,30,1
10.65525723,1411,1,30,1
10.66576481,1217,1,30,1
10.67603755,1454,1,30,1
10.68282437,1245,1,30,1
10.69481373,1479,1,30,1
10.70282769,1255,1,30,1
10.71576452,1561,1,30,1
10.72518778,1178,1,30,1
10.73546267,1521,1,30,1
10.7438097,1209,1,30,1
10.75543237,1518,1,30,1
10.76362276,1191,1,30,1
10.77392173,1515,1,30,1
10.78541732,1159,1,30,1
10.79601002,1608,1,30,1
10.80385828,1136,1,30,1
10.81340575,1473,1,30,1
10.82479835,1170,1,30,1
10.83467221,1524,1,30,1
10.84612823,1125,1,30,1
10.85569167,1534,1,30,1
10.86494923,1136,1,30,1
10.87251043,1419,1,30,1
10.88591623,1151,1,30,1
10.89590478,1425,1,30,1
10.90382934,1194,1,30,1
10.91438842,1411,1,30,1
10.92496347,1136,1,30,1
10.93382025,1376,1,30,1
10.94945884,1012,1,30,1
10.95536304,1361,1,30,1
10.96547079,1089,1,30,1
10.97556186,1387,1,30,1
10.98524475,1075,1,30,1
10.99572492,1070,1,30,1
11.00391245,1030,1,30,1
11.01527333,1718,1,30,1
11.02378988,782,1,30,1
11.03388071,1688,1,30,1
11.04636216,621,1,30,1
11.05383205,1234,1,30,1
11.06466031,1821,1,30,1
11.07323194,1626,1,30,1
11.08569503,1531,1,30,1
11.09594083,1310,1,30,1
11.10379362,1039,1,30,1
11.11566448,1663,1,30,1
11.12518764,1232,1,30,1
11.13380384,1466,1,30,1
11.14579034,1229,1,30,1
11.15513611,1191,1,30,1
11.16564679,973,1,30,1
11.17276692,1526,1,30,1
11.18569374,865,1,30,1
11.19497037,1373,1,30,1
11.20524693,1185,1,30,1
11.21534944,1393,1,30,1
11.2258358,875,1,30,1
11.23503613,1330,1,30,1
11.24581075,891,1,30,1
11.25533223,1152,1,30,1
11.26565099,899,1,30,1
11.27545118,1131,1,30,1
11.28556275,1296,1,30,1
11.2980597,1142,1,30,1
11.30437589,847,1,30,1
11.31560493,1211,1,30,1
11.32555532,850,1,30,1
11.33520293,1078,1,30,1
11.34550762,766,1,30,1
11.35522938,1029,1,30,1
11.3653245,848,1,30,1
11.37528563,990,1,30,1
11.3817327,799,1,30,1
11.39568138,848,1,30,1
11.4052608,720,1,30,1
11.41509271,922,1,30,1
11.42536759,774,1,30,1
11.43541455,1001,1,30,1
11.44522595,752,1,30,1
11.45443249,530,1,30,1
11.46674562,733,1,30,1
11.47531223,931,1,30,1
11.4850471,701,1,30,1
11.49567866,848,1,30,1
11.50261617,669,1,30,1
11.51533675,821,1,30,1
11.52583981,689,1,30,1
11.53420925,1735,1,30,1
11.54581499,640,1,30,1
11.55384374,833,1,30,1
11.56417012,670,1,30,1
11.56999063,1702,1,30,1
11.58372736,699,1,30,1
11.59498811,1648,1,30,1
11.60588717,816,1,30,1
11.61550498,1826,1,30,1
11.62500906,942,1,30,1
11.63544512,1753,1,30,1
11.645926,643,1,30,1
11.65450883,1854,1,30,1
11.66535258,1877,1,30,1
11.67584276,1735,1,30,1
11.68558621,1669,1,30,1
11.69571543,1363,1,30,1
11.70531487,1314,1,30,1
11.71471906,1346,1,30,1
11.72540712,1520,1,30,1
11.73312974,1650,1,30,1
11.74552846,1456,1,30,1
11.75368023,135,1,30,1
11.76386213,1394,1,30,1
11.77560711,1286,1,30,1
11.7842443,1211,1,30,1
11.79554439,1218,1,30,1
11.80588412,1040,1,30,1
11.8161602,917,1,30,1
11.82411623,759,1,30,1
11.83297086,1648,1,30,1
11.84584045,1885,1,30,1
11.85466838,1601,1,30,1
11.8643744,710,1,30,1
11.87530851,1360,1,30,1
11.88430953,630,1,30,1
11.89595437,45,1,30,1
11.90603137,1758,1,30,1
11.91571784,1798,1,30,1
11.92266083,251,1,30,1
11.93520594,32,1,30,1
11.94578242,34,1,30,1
11.95507336,1315,1,30,1
11.96400714,2023,1,30,1
11.97558999,989,1,30,1
11.98469353,1696,1,30,1
11.99563217,1911,1,30,1
12.00570822,0,1,30,1
12.01502037,1453,1,30,1
12.02261639,2128,1,30,1
12.03593278,1456,1,30,1
12.04518056,1488,1,30,1
12.05297494,1811,1,30,1
12.063555,887,1,30,1
12.07524824,2076,1,30,1
12.08451319,1527,1,30,1
12.09422684,355,1,30,1
12.1055243,1546,1,30,1
12.11601496,1670,1,30,1
12.12547207,1552,1,30,1
12.13579369,0,1,30,1
12.1455133,1695,1,30,1
12.15514636,227,1,30,1
12.1651926,1580,1,30,1
12.17549443,1359,1,30,1
12.18660688,1723,1,30,1
12.19528604,1319,1,30,1
12.20531178,1711,1,30,1
12.21664572,1319,1,30,1
12.2253871,1813,1,30,1
12.23509407,1011,1,30,1
12.24568748,1475,1,30,1
12.2556684,993,1,30,1
12.26539183,1493,1,30,1
12.27543569,1340,1,30,1
12.28521729,1394,1,30,1
12.29569912,1310,1,30,1
12.30523753,1363,1,30,1
12.31641722,1350,1,30,1
12.32588243,1504,1,30,1
12.33601236,1201,1,30,1
12.34577894,2505,1,30,1
12.35541725,1664,1,30,1
12.36564946,1581,1,30,1
12.37525392,1229,1,30,1
12.38497186,1361,1,30,1
12.39501905,751,1,30,1
12.40588307,1386,1,30,1
12.41421747,812,1,30,1
12.42332053,0,1,30,1
12.43548203,480,1,30,1
12.44554782,0,1,30,1
12.45509434,2019,1,30,1
12.46566749,0,1,30,1
12.46987009,1702,1,30,1
12.48529983,0,1,30,1
12.49018931,1568,1,30,1
12.50512719,0,1,30,1
12.5071218,1543,1,30,1
12.52087975,0,1,30,1
12.53508878,1520,1,30,1
12.54585814,0,1,30,1
12.55532455,1586,1,30,1
12.56815314,0,1,30,1
12.57577252,1507,1,30,1
12.58554602,0,1,30,1
12.59514499,1578,1,30,1
12.59823918,1815,1,30,1
12.61366558,1590,1,30,1
12.6237793,2608,1,30,1
12.63504577,1544,1,30,1
12.64536405,2323,1,30,1
12.65326619,1499,1,30,1
12.66638088,1365,1,30,1
12.67593622,1520,1,30,1
12.68583322,1666,1,30,1
12.69536233,1358,1,30,1
12.70558715,1840,1,30,1
12.7159605,1478,1,30,1
12.72581387,1395,1,30,1
12.73588347,1376,1,30,1
12.74653816,1755,1,30,1
12.75421357,1467,1,30,1
12.76591182,2032,1,30,1
12.77441239,1417,1,30,1
12.78517485,2545,1,30,1
12.79058981,1486,1,30,1
12.80583572,667,1,30,1
12.81590915,1441,1,30,1
12.82325292,0,1,30,1
12.83585691,1393,1,30,1
12.83924055,0,1,30,1
12.85186696,1382,1,30,1
12.86561632,2251,1,30,1
12.87408018,1358,1,30,1
12.88456678,2543,1,30,1
12.88759685,1319,1,30,1
12.90583348,2265,1,30,1
12.91514897,1314,1,30,1
12.92535996,611,1,30,1
12.93551898,1406,1,30,1
12.94534302,720,1,30,1
12.95519567,1434,1,30,1
12.96555829,1216,1,30,1
12.97555375,1255,1,30,1
12.98560143,245,1,30,1
12.99599671,1082,1,30,1
13.00589061,2283,1,30,1
13.0150373,1685,1,30,1
13.02583575,300,1,30,1
13.03534722,1475,1,30,1
13.04533172,2423,1,30,1
13.05254197,1434,1,30,1
13.06496763,0,1,30,1
13.07555127,1110,1,30,1
13.08584332,0,1,30,1
13.09579754,1399,1,30,1
13.1058948,0,1,30,1
13.11522794,1509,1,30,1
13.12569094,0,1,30,1
13.13537431,1314,1,30,1
13.1456387,0,1,30,1
13.15554142,1105,1,30,1
13.16543961,0,1,30,1
13.1751914,1473,1,30,1
13.18555498,560,1,30,1
13.19816589,1391,1,30,1
13.20558858,0,1,30,1
13.21526861,1382,1,30,1
13.22516751,76,1,30,1
13.23568749,1342,1,30,1
13.24121904,0,1,30,1
13.25582409,1376,1,30,1
13.26565599,0,1,30,1
13.2753737,1366,1,30,1
13.28534842,0,1,30,1
13.29535079,1357,1,30,1
13.30373383,0,1,30,1
13.31502867,1351,1,30,1
13.3253634,0,1,30,1
13.3356998,1328,1,30,1
13.34559917,0,1,30,1
13.35579395,1266,1,30,1
13.3652308,0,1,30,1
13.37548566,1261,1,30,1
13.38521433,0,1,30,1
13.39574003,1244,1,30,1
13.40566158,0,1,30,1
13.41299605,1279,1,30,1
13.42528319,0,1,30,1
13.434515,1250,1,30,1
13.44530725,0,1,30,1
13.45455289,1232,1,30,1
13.46580434,0,1,30,1
13.47343779,1216,1,30,1
13.48327851,0,1,30,1
13.49539804,1201,1,30,1
13.50313568,0,1,30,1
13.51584983,1194,1,30,1
13.52517581,0,1,30,1
13.53543949,1167,1,30,1
13.545645,0,1,30,1
13.55152726,1155,1,30,1
13.5658071,455,1,30,1
13.57567811,1139,1,30,1
13.58594108,0,1,30,1
13.59556437,1276,1,30,1
13.60492206,0,1,30,1
13.61533904,1424,1,30,1
13.62599945,0,1,30,1
13.63502383,1122,1,30,1
13.64506936,0,1,30,1
13.65565562,1767,1,30,1
13.66444206,0,1,30,1
13.67472816,1808,1,30,1
13.68517613,0,1,30,1
13.69524503,1691,1,30,1
13.70584464,0,1,30,1
13.71590018,1808,1,30,1
13.72570133,0,1,30,1
13.7334013,1575,1,30,1
13.74546361,494,1,30,1
13.7554934,1360,1,30,1
13.76550317,959,1,30,1
13.76651859,1264,1,30,1
13.78547907,0,1,30,1
13.7956326,979,1,30,1
13.80186582,965,1,30,1
13.81501007,1046,1,30,1
13.82530332,0,1,30,1
13.83248353,1104,1,30,1
13.84590149,0,1,30,1
13.85508847,1040,1,30,1
13.86565208,0,1,30,1
13.87543726,1017,1,30,1
13.88545752,0,1,30,1
13.88645458,986,1,30,1
13.90159655,0,1,30,1
13.91517591,1041,1,30,1
13.91700935,0,1,30,1
13.93526793,1022,1,30,1
13.94547725,0,1,30,1
13.9557476,926,1,30,1
13.96551847,0,1,30,1
13.97568107,941,1,30,1
13.98222446,0,1,30,1
13.99641609,927,1,30,1
14.00512719,0,1,30,1
14.01601553,912,1,30,1
14.02462673,0,1,30,1
14.03188705,912,1,30,1
14.04569602,2610,1,30,1
14.05554676,884,1,30,1
14.06563544,0,1,30,1
14.07118988,910,1,30,1
14.08530211,0,1,30,1
14.09511375,897,1,30,1
14.1055913,797,1,30,1
14.11231732,870,1,30,1
14.1256578,2480,1,30,1
14.13427949,874,1,30,1
14.14000082,0,1,30,1
14.15538216,843,1,30,1
14.16552925,0,1,30,1
14.17408991,849,1,30,1
14.18506551,2512,1,30,1
14.19509315,829,1,30,1
14.20592189,2634,1,30,1
14.21611357,848,1,30,1
14.22541928,2640,1,30,1
14.23397279,798,1,30,1
14.24511862,2557,1,30,1
14.25513864,807,1,30,1
14.26559997,2634,1,30,1
14.27174139,789,1,30,1
14.28610873,2559,1,30,1
14.29602218,777,1,30,1
14.30134916,2531,1,30,1
14.31554985,743,1,30,1
14.32471108,2512,1,30,1
14.33269024,746,1,30,1
14.34087253,2547,1,30,1
14.35386729,706,1,30,1
14.36462831,2219,1,30,1
14.37544751,912,1,30,1
14.38478661,2091,1,30,1
14.39514041,718,1,30,1
14.40534759,553,1,30,1
14.41556191,745,1,30,1
14.42566466,1808,1,30,1
14.43440938,753,1,30,1
14.44564366,1275,1,30,1
14.44895697,710,1,30,1
14.46486473,2270,1,30,1
14.47265434,690,1,30,1
14.48490524,2582,1,30,1
14.49502826,720,1,30,1
14.50538158,2222,1,30,1
14.51574969,666,1,30,1
14.52281618,2356,1,30,1
14.53562737,591,1,30,1
14.54535031,2241,1,30,1
14.55567884,455,1,30,1
14.56535697,2033,1,30,1
14.56635451,630,1,30,1
14.58499765,1363,1,30,1
14.58599496,643,1,30,1
14.60078168,1947,1,30,1
14.61557102,636,1,30,1
14.62515807,2015,1,30,1
14.63553786,592,1,30,1
14.64586711,1901,1,30,1
14.65518737,604,1,30,1
14.66550922,1648,1,30,1
14.67575359,1627,1,30,1
14.68499804,1904,1,30,1
14.69546461,573,1,30,1
14.70406103,0,1,30,1
14.71257567,1895,1,30,1
14.72365427,1503,1,30,1
14.73360538,1387,1,30,1
14.7455461,365,1,30,1
14.75515223,1185,1,30,1
14.76552391,2352,1,30,1
14.77540827,170,1,30,1
14.78529644,0,1,30,1
14.79525089,1853,1,30,1
14.79624748,1214,1,30,1
14.81466651,1390,1,30,1
14.82252741,1379,1,30,1
14.83288455,1489,1,30,1
14.84557462,1359,1,30,1
14.8554163,1681,1,30,1
14.87211275,1497,1,30,1
14.87292051,1476,1,30,1
14.88046741,1042,1,30,1
14.8960762,339,1,30,1
14.90574956,1654,1,30,1
14.91448665,1744,1,30,1
14.92452598,1712,1,30,1
14.93382001,1882,1,30,1
14.94589257,1680,1,30,1
14.95582724,1168,1,30,1
14.96195245,1516,1,30,1
14.97539592,1424,1,30,1
14.98346376,1478,1,30,1
14.99577475,1616,1,30,1
15.00566077,1338,1,30,1
15.0142653,2031,1,30,1
15.02428079,1506,1,30,1
15.03428078,1895,1,30,1
15.03735924,1482,1,30,1
15.05296993,1984,1,30,1
15.06507969,1520,1,30,1
15.07513976,1921,1,30,1
15.08496642,971,1,30,1
15.09556222,1895,1,30,1
15.10547733,389,1,30,1
15.11561894,1505,1,30,1
15.12156463,2559,1,30,1
15.13157129,1178,1,30,1
15.1456306,1493,1,30,1
15.15477872,1359,1,30,1
15.1640079,2413,1,30,1
15.17567825,1402,1,30,1
15.18527985,1987,1,30,1
15.19493413,1325,1,30,1
15.20579267,1426,1,30,1
15.21492791,1411,1,30,1
15.22601032,1366,1,30,1
15.23541045,1488,1,30,1
15.24497867,1379,1,30,1
15.25512862,1659,1,30,1
15.26590347,1237,1,30,1
15.27506495,1549,1,30,1
15.2851212,1616,1,30,1
15.29523683,1291,1,30,1
15.30533004,1551,1,30,1
15.31547952,1072,1,30,1
15.32520151,1390,1,30,1
15.33240581,857,1,30,1
15.34520364,1268,1,30,1
15.35621476,673,1,30,1
15.36595488,1355,1,30,1
15.37500477,1135,1,30,1
15.38566017,1328,1,30,1
15.39340138,1199,1,30,1
15.40512252,1301,1,30,1
15.40961647,1040,1,30,1
15.42565179,1285,1,30,1
15.43547511,736,1,30,1
15.44511533,1314,1,30,1
15.45578551,743,1,30,1
15.4651885,1466,1,30,1
15.47515345,711,1,30,1
15.48503304,1725,1,30,1
15.49512339,468,1,30,1
15.50574636,2345,1,30,1
15.51556587,464,1,30,1
15.52607965,1011,1,30,1
15.53515482,501,1,30,1
15.54577446,0,1,30,1
15.55532265,413,1,30,1
15.56995487,0,1,30,1
15.56995487,393,1,30,1
15.59013748,0,1,30,1
15.59552073,386,1,30,1
15.60505056,0,1,30,1
15.61509228,464,1,30,1
15.62023592,0,1,30,1
15.63517118,401,1,30,1
15.64579844,0,1,30,1
15.65513754,388,1,30,1
15.66561556,0,1,30,1
15.67529678,400,1,30,1
15.68548608,0,1,30,1
15.69307709,250,1,30,1
15.70285892,0,1,30,1
15.71616554,336,1,30,1
15.72547269,0,1,30,1
15.73542237,348,1,30,1
15.74585867,0,1,30,1
15.75444174,366,1,30,1
15.76531005,0,1,30,1
15.7750864,368,1,30,1
15.78506994,0,1,30,1
15.79562616,312,1,30,1
15.80554795,0,1,30,1
15.81539989,324,1,30,1
15.82524848,0,1,30,1
15.83576846,992,1,30,1
15.84521413,400,1,30,1
15.85566807,1136,1,30,1
15.86540556,557,1,30,1
15.87011528,1099,1,30,1
15.88384151,411,1,30,1
15.8953495,991,1,30,1
15.90544343,333,1,30,1
15.91600418,962,1,30,1
15.92520642,177,1,30,1
15.93545365,880,1,30,1
15.94540906,0,1,30,1
15.95585132,716,1,30,1
15.96567369,0,1,30,1
15.97518969,537,1,30,1
15.98502851,0,1,30,1
15.99603581,341,1,30,1
16.00519633,0,1,30,1
16.01548147,434,1,30,1
16.02475405,0,1,30,1
16.03622985,649,1,30,1
16.04750228,0,1,30,1
16.05497694,511,1,30,1
16.0656538,0,1,30,1
16.07572675,500,1,30,1
16.08547544,4095,1,30,1
16.09552693,1563,1,30,1
16.10618091,4095,1,30,1
16.11505556,2115,1,30,1
16.12588429,4095,1,30,1
16.13571572,2160,1,30,1
16.14592552,4095,1,30,1
16.15039802,1966,1,30,1
16.16502905,4095,1,30,1
16.17561126,1975,1,30,1
16.18527317,4095,1,30,1
16.19580173,1974,1,30,1
16.20512295,4095,1,30,1
16.21555424,1833,1,30,1
16.22536635,4095,1,30,1
16.23527455,1977,1,30,1
16.24571133,4095,1,30,1
16.25564027,1827,1,30,1
16.26527023,4095,1,30,1
16.26726556,1897,1,30,1
16.28463554,4095,1,30,1
16.29601216,1869,1,30,1
16.30580974,4095,1,30,1
16.31673956,1791,1,30,1
16.32316089,4095,1,30,1
16.33547211,2032,1,30,1
16.34579253,4095,1,30,1
16.35539484,1737,1,30,1
16.36501002,4095,1,30,1
16.37592483,1899,1,30,1
16.38508201,4095,1,30,1
16.39538217,1926,1,30,1
16.40496254,4095,1,30,1
16.41536164,1858,1,30,1
16.4235642,4095,1,30,1
16.4353528,2064,1,30,1
16.44565439,4095,1,30,1
16.45544672,1790,1,30,1
16.46522379,4095,1,30,1
16.47477388,1990,1,30,1
16.48492479,4095,1,30,1
16.49507189,2256,1,30,1
16.50546694,4095,1,30,1
16.51500297,358,1,30,1
16.52558112,4095,1,30,1
16.53561211,368,1,30,1
16.54593801,4095,1,30,1
16.55520749,338,1,30,1
16.56595325,4095,1,30,1
16.57250953,269,1,30,1
16.58516145,2043,1,30,1
16.59511924,153,1,30,1
16.60485125,0,1,30,1
16.61591911,128,1,30,1
16.62494707,0,1,30,1
16.63510227,112,1,30,1
16.64597774,4095,1,30,1
16.65564919,662,1,30,1
16.66556358,4095,1,30,1
16.67097569,955,1,30,1
16.68414569,4095,1,30,1
16.69502735,1233,1,30,1
16.70501637,4095,1,30,1
16.71552825,1471,1,30,1
16.7219615,4095,1,30,1
16.73529577,1745,1,30,1
16.74910688,3760,1,30,1
16.75585365,735,1,30,1
16.76551127,0,1,30,1
16.77515745,1615,1,30,1
16.78531384,1397,1,30,1
16.79553723,2496,1,30,1
16.80410051,1471,1,30,1
16.8159585,2651,1,30,1
16.82416201,1497,1,30,1
16.83586621,2439,1,30,1
16.84581637,1648,1,30,1
16.85534,239,1,30,1
16.86567831,1520,1,30,1
16.87063622,240,1,30,1
16.88552761,1439,1,30,1
16.89497614,134,1,30,1
16.90578127,1229,1,30,1
16.91522264,3050,1,30,1
16.92391181,951,1,30,1
16.93520951,3057,1,30,1
16.94584584,1191,1,30,1
16.95507598,3650,1,30,1
16.96560121,775,1,30,1
16.97447634,2945,1,30,1
16.98566031,48,1,30,1
16.99559855,2719,1,30,1
17.00548816,39,1,30,1
17.01541758,1575,1,30,1
17.02424836,429,1,30,1
17.03429317,1174,1,30,1
17.04770207,421,1,30,1
17.0550797,436,1,30,1
17.06599689,150,1,30,1
17.07494926,749,1,30,1
17.08590269,1115,1,30,1
17.09506631,2439,1,30,1
17.10564256,2105,1,30,1
17.11425066,38,1,30,1
17.12516165,1807,1,30,1
17.13592911,4095,1,30,1
17.14589524,1782,1,30,1
17.15547848,4095,1,30,1
17.16532993,1863,1,30,1
17.17572641,75,1,30,1
17.18565297,1968,1,30,1
17.19525814,0,1,30,1
17.20407391,1941,1,30,1
17.21594,0,1,30,1
17.22422647,2045,1,30,1
17.23507667,0,1,30,1
17.24591398,2041,1,30,1
17.25517988,0,1,30,1
17.26438189,2047,1,30,1
17.2706697,0,1,30,1
17.28521109,1344,1,30,1
17.29502678,0,1,30,1
17.30522704,435,1,30,1
17.31591868,0,1,30,1
17.32601786,1750,1,30,1
17.33578157,0,1,30,1
17.34573817,2354,1,30,1
17.35508919,0,1,30,1
17.36596894,1981,1,30,1
17.37594223,2645,1,30,1
17.38573265,1929,1,30,1
17.39506555,2807,1,30,1
17.40585375,1984,1,30,1
17.41524005,2852,1,30,1
17.42299199,1792,1,30,1
17.43541884,2448,1,30,1
17.44574904,1823,1,30,1
17.45556283,2589,1,30,1
17.46573496,1810,1,30,1
17.47500634,2352,1,30,1
17.48588562,1812,1,30,1
17.49581599,2775,1,30,1
17.50522709,1757,1,30,1
17.51570439,2832,1,30,1
17.52539372,1841,1,30,1
17.53521299,2753,1,30,1
17.54586196,2578,1,30,1
17.55523539,554,1,30,1
17.56551385,1933,1,30,1
17.5764699,1173,1,30,1
17.58309269,1405,1,30,1
17.59766388,0,1,30,1
17.60545516,1719,1,30,1
17.61513901,2394,1,30,1
17.625916,1713,1,30,1
17.63596749,2124,1,30,1
17.64569974,1811,1,30,1
17.65558958,2360,1,30,1
17.66579318,1562,1,30,1
17.67094898,1425,1,30,1
17.68594742,884,1,30,1
17.69595718,1725,1,30,1
17.70585895,1723,1,30,1
17.71589899,2137,1,30,1
17.72398019,1616,1,30,1
17.73592615,2639,1,30,1
17.74575162,1641,1,30,1
17.75597143,2421,1,30,1
17.76511645,1675,1,30,1
17.77371693,2352,1,30,1
17.78550863,1686,1,30,1
17.79568052,2304,1,30,1
17.80599856,1721,1,30,1
17.81562018,2854,1,30,1
17.82587576,1615,1,30,1
17.83115959,2762,1,30,1
17.84570575,1616,1,30,1
17.8557601,2143,1,30,1
17.86578345,1638,1,30,1
17.87136722,2383,1,30,1
17.88550758,1609,1,30,1
17.89546132,2251,1,30,1
17.90581822,1573,1,30,1
17.91566968,1989,1,30,1
17.92535257,1094,1,30,1
17.93491435,1237,1,30,1
17.94570303,1257,1,30,1
17.95514488,800,1,30,1
17.9652276,1629,1,30,1
17.97445083,1143,1,30,1
17.9859488,114,1,30,1
17.99498391,2118,1,30,1
18.00577259,1520,1,30,1
18.01553702,1453,1,30,1
18.02582455,2141,1,30,1
18.03560066,2499,1,30,1
18.04567361,511,1,30,1
18.04797077,2679,1,30,1
18.06204224,1409,1,30,1
18.07506633,1441,1,30,1
18.08504653,1703,1,30,1
18.09479475,1415,1,30,1
18.10497117,1456,1,30,1
18.11564183,1186,1,30,1
18.12588048,1230,1,30,1
18.13440728,1776,1,30,1
18.14558363,879,1,30,1
18.15563011,705,1,30,1
18.16516376,709,1,30,1
18.1735754,1057,1,30,1
18.18556046,1344,1,30,1
18.19544506,885,1,30,1
18.20519185,1862,1,30,1
18.2154932,1214,1,30,1
18.22521544,835,1,30,1
18.23539948,759,1,30,1
18.24528885,848,1,30,1
18.25541115,1250,1,30,1
18.26299667,1076,1,30,1
18.27145743,1241,1,30,1
18.28087521,1908,1,30,1
18.29466295,1941,1,30,1
18.30584574,1520,1,30,1
18.31535363,1599,1,30,1
18.3253274,1594,1,30,1
18.33514476,1554,1,30,1
18.34554482,1590,1,30,1
18.35601091,1767,1,30,1
18.36599255,1545,1,30,1
18.37566948,2411,1,30,1
18.38537145,1316,1,30,1
18.39534354,1201,1,30,1
18.4057889,1296,1,30,1
18.41519642,1225,1,30,1
18.41969395,1141,1,30,1
18.43548179,1197,1,30,1
18.44555378,1138,1,30,1
18.45548177,1197,1,30,1
18.46262765,1154,1,30,1
18.4755826,443,1,30,1
18.48513293,903,1,30,1
18.49583268,1535,1,30,1
18.50493145,1347,1,30,1
18.51053786,958,1,30,1
18.52248979,908,1,30,1
18.53590846,719,1,30,1
18.54581499,757,1,30,1
18.55437565,833,1,30,1
18.56522536,212,1,30,1
18.57583022,1040,1,30,1
18.58562064,1078,1,30,1
18.59531617,1945,1,30,1
18.60571909,1003,1,30,1
18.61503363,876,1,30,1
18.625283,1161,1,30,1
18.63517833,962,1,30,1
18.64571095,850,1,30,1
18.65543079,863,1,30,1
18.66511369,958,1,30,1
18.67559552,852,1,30,1
18.68559837,930,1,30,1
18.69579625,838,1,30,1
18.7058928,907,1,30,1
18.71501064,832,1,30,1
18.71924853,891,1,30,1
18.73587584,809,1,30,1
18.74551368,898,1,30,1
18.75292301,799,1,30,1
18.76536679,1035,1,30,1
18.77377462,822,1,30,1
18.78577161,548,1,30,1
18.79556155,843,1,30,1
18.8057456,1281,1,30,1
18.81582808,1178,1,30,1
18.8235116,1434,1,30,1
18.83580256,710,1,30,1
18.84617901,1383,1,30,1
18.85559106,720,1,30,1
18.86603165,1431,1,30,1
18.87533116,1066,1,30,1
18.88219309,1205,1,30,1
18.8955431,1072,1,30,1
18.90301347,1161,1,30,1
18.91550851,937,1,30,1
18.92208934,960,1,30,1
18.9360342,845,1,30,1
18.94576454,641,1,30,1
18.95591688,635,1,30,1
18.96508431,814,1,30,1
18.970541,685,1,30,1
18.98569441,720,1,30,1
18.9956789,371,1,30,1
19.00302029,1275,1,30,1
19.01589131,767,1,30,1
19.02581811,720,1,30,1
19.03622293,1248,1,30,1
19.04637885,753,1,30,1
19.05721974,1275,1,30,1
19.06591201,710,1,30,1
19.07548451,2270,1,30,1
19.08530402,690,1,30,1
19.0958035,2582,1,30,1
19.10368109,720,1,30,1
19.11513877,2222,1,30,1
19.11952662,666,1,30,1
19.13580251,2356,1,30,1
19.1451776,591,1,30,1
19.15569258,2241,1,30,1
19.16443372,455,1,30,1
19.17313075,2033,1,30,1
19.18512893,630,1,30,1
19.19559336,1363,1,30,1
19.2044034,643,1,30,1
19.21589661,1947,1,30,1
19.2219584,636,1,30,1
19.23560786,2015,1,30,1
19.24514055,592,1,30,1
19.25370097,1901,1,30,1
19.26529121,604,1,30,1
19.27397346,1648,1,30,1
19.28528166,1627,1,30,1
19.29448152,1904,1,30,1
19.30486274,573,1,30,1
19.31543469,0,1,30,1
19.3188808,1895,1,30,1
19.33550024,1503,1,30,1
19.34519124,1387,1,30,1
19.35321808,365,1,30,1
19.36440301,1185,1,30,1
19.37217188,2352,1,30,1
19.38550973,170,1,30,1
19.39589167,0,1,30,1
19.40511703,1853,1,30,1
19.41412497,1214,1,30,1
19.42207909,1390,1,30,1
19.43544793,1379,1,30,1
19.44550467,1489,1,30,1
19.45569682,1359,1,30,1
19.46541047,1681,1,30,1
19.47592664,1497,1,30,1
19.48509145,1476,1,30,1
19.49450231,1042,1,30,1
19.50578785,339,1,30,1
19.51526284,1654,1,30,1
19.52163482,1744,1,30,1
19.5346446,1712,1,30,1
19.53707767,1882,1,30,1
19.55229092,1680,1,30,1
19.56557298,1168,1,30,1
19.57380986,1516,1,30,1
19.58412647,1424,1,30,1
19.59489441,1478,1,30,1
19.60483527,1616,1,30,1
19.61416388,1338,1,30,1
19.62169719,2031,1,30,1
19.63398242,1506,1,30,1
19.64451671,1895,1,30,1
19.651618,1482,1,30,1
19.66474533,1984,1,30,1
19.67205644,1520,1,30,1
19.68461347,1921,1,30,1
19.6945641,971,1,30,1
19.70401645,1895,1,30,1
19.71413922,389,1,30,1
19.71913385,1505,1,30,1
19.73456144,2559,1,30,1
19.74437141,1178,1,30,1
19.75065207,1493,1,30,1
19.76551843,1359,1,30,1
19.77073431,2413,1,30,1
19.78225708,1402,1,30,1
19.79498982,1987,1,30,1
19.80478215,1325,1,30,1
19.81193805,1426,1,30,1
19.81650138,1411,1,30,1
19.82762313,1366,1,30,1
19.8448534,1488,1,30,1
19.85475492,1379,1,30,1
19.86190343,1659,1,30,1
19.87414074,1237,1,30,1
19.88032174,1549,1,30,1
19.89433098,1616,1,30,1
19.90541458,1291,1,30,1
19.91184831,1551,1,30,1
19.92387962,1072,1,30,1
19.93421841,1390,1,30,1
19.94546247,857,1,30,1
19.95496631,1268,1,30,1
19.9618566,673,1,30,1
19.97494149,1355,1,30,1
19.97858334,1135,1,30,1
19.99418545,1328,1,30,1
19.99518728,1199,1,30,1
20.00736594,1301,1,30,1
20.02059531,1040,1,30,1
20.03425789,1285,1,30,1
20.03925395,736,1,30,1
20.05477476,1314,1,30,1
20.06179643,743,1,30,1
20.07395625,1466,1,30,1
20.07846379,711,1,30,1
20.09417653,1725,1,30,1
20.09518194,468,1,30,1
20.11464834,2345,1,30,1
20.12074566,464,1,30,1
20.13487577,1011,1,30,1
20.14436245,501,1,30,1
20.15321636,0,1,30,1
20.16173577,413,1,30,1
20.17178655,0,1,30,1
20.17853045,393,1,30,1
20.19415069,0,1,30,1
20.19515347,386,1,30,1
20.21181035,0,1,30,1
20.22186589,464,1,30,1
20.22846866,0,1,30,1
20.24412584,401,1,30,1
20.2551322,0,1,30,1
20.26180577,388,1,30,1
20.27184319,0,1,30,1
20.27845907,400,1,30,1
20.2941258,0,1,30,1
20.29513144,250,1,30,1
20.31187391,0,1,30,1
20.3168118,336,1,30,1
20.33348155,0,1,30,1
20.3444984,348,1,30,1
20.35426259,0,1,30,1
20.36510086,366,1,30,1
20.37069345,0,1,30,1
20.37880039,368,1,30,1
20.39397645,0,1,30,1
20.40115571,312,1,30,1
20.41304326,0,1,30,1
20.42423797,324,1,30,1
20.42843676,0,1,30,1
20.44409132,992,1,30,1
20.45488787,400,1,30,1
20.46175599,1136,1,30,1
20.47176814,557,1,30,1
20.47845793,1099,1,30,1
20.49495053,411,1,30,1
20.50195241,991,1,30,1
20.51506901,333,1,30,1
20.52486038,962,1,30,1
20.53248668,177,1,30,1
20.54467535,880,1,30,1
20.55459857,0,1,30,1
20.56302786,716,1,30,1
20.57463861,0,1,30,1
20.58446121,537,1,30,1
20.59415674,0,1,30,1
20.6016233,341,1,30,1
20.61315489,0,1,30,1
20.62449741,434,1,30,1
20.6330409,0,1,30,1
20.64401293,649,1,30,1
20.65429735,0,1,30,1
20.66167402,511,1,30,1
20.67168474,0,1,30,1
20.68407965,500,1,30,1
20.69398642,4095,1,30,1
20.70138454,1563,1,30,1
20.71472979,4095,1,30,1
20.72346687,2115,1,30,1
20.73309302,4095,1,30,1
20.74494648,2160,1,30,1
20.75453067,4095,1,30,1
20.76487684,1966,1,30,1
20.77419138,4095,1,30,1
20.78397989,1975,1,30,1
20.79466462,4095,1,30,1
20.80480289,1974,1,30,1
20.81465673,4095,1,30,1
20.82483149,1833,1,30,1
20.83484578,4095,1,30,1
20.84400558,1977,1,30,1
20.85402393,4095,1,30,1
20.86418629,1827,1,30,1
20.87351823,4095,1,30,1
20.88474989,1897,1,30,1
20.89390445,4095,1,30,1
20.90189624,1869,1,30,1
20.91183686,4095,1,30,1
20.91985345,1791,1,30,1
20.93033195,4095,1,30,1
20.9403677,2032,1,30,1
20.95498538,4095,1,30,1
20.96419644,1737,1,30,1
20.97457886,4095,1,30,1
20.98314404,1899,1,30,1
20.99430227,4095,1,30,1
21.00311399,1926,1,30,1
21.01452589,4095,1,30,1
21.02456737,1858,1,30,1
21.03012657,4095,1,30,1
21.0415628,2064,1,30,1
21.05499864,4095,1,30,1
21.06223536,1790,1,30,1
21.07227302,4095,1,30,1
21.07898617,1990,1,30,1
21.09384894,4095,1,30,1
21.10461307,2256,1,30,1
21.10667896,4095,1,30,1
21.11786556,358,1,30,1
21.13029671,4095,1,30,1
21.14210701,368,1,30,1
21.14596534,4095,1,30,1
21.16119456,338,1,30,1
21.17499256,4095,1,30,1
21.18390298,269,1,30,1
21.19483995,2043,1,30,1
21.20430994,153,1,30,1
21.21465755,0,1,30,1
21.22491527,128,1,30,1
21.23005676,0,1,30,1
21.24443626,112,1,30,1
21.25315905,4095,1,30,1
21.2629602,662,1,30,1
21.26828241,4095,1,30,1
21.28438973,955,1,30,1
21.29478121,4095,1,30,1
21.30007911,1233,1,30,1
21.31433749,4095,1,30,1
21.32305622,1471,1,30,1
21.33158183,4095,1,30,1
21.34486818,1745,1,30,1
21.35269666,3760,1,30,1
21.36145639,735,1,30,1
21.37480903,0,1,30,1
21.38339186,1615,1,30,1
21.39482212,1397,1,30,1
21.40411258,2496,1,30,1
21.41469812,1471,1,30,1
21.42499232,2651,1,30,1
21.43046069,1497,1,30,1
21.44485164,2439,1,30,1
21.4549551,1648,1,30,1
21.46145439,239,1,30,1
21.47457695,1520,1,30,1
21.48319459,240,1,30,1
21.49411082,1439,1,30,1
21.49863911,134,1,30,1
21.51499176,1229,1,30,1
21.52169347,3050,1,30,1
21.52922702,951,1,30,1
21.54469037,3057,1,30,1
21.55321145,1191,1,30,1
21.56438088,3650,1,30,1
21.57434368,775,1,30,1
21.58428478,2945,1,30,1
21.59374213,48,1,30,1
21.60497451,2719,1,30,1
21.6144402,39,1,30,1
21.62430477,1575,1,30,1
21.63030887,429,1,30,1
21.64478564,1174,1,30,1
21.65462875,421,1,30,1
21.66502619,436,1,30,1
21.67505121,150,1,30,1
21.6828022,749,1,30,1
21.69329691,1115,1,30,1
21.70467949,2439,1,30,1
21.7133944,2105,1,30,1
21.72215247,38,1,30,1
21.72973108,1807,1,30,1
21.74443221,4095,1,30,1
21.75493264,1782,1,30,1
21.75493264,4095,1,30,1
21.77472591,1863,1,30,1
21.78243804,75,1,30,1
21.79300642,1968,1,30,1
21.80441928,0,1,30,1
21.8140831,1941,1,30,1
21.82448697,0,1,30,1
21.83471084,2045,1,30,1
21.84426618,0,1,30,1
21.85446739,2041,1,30,1
21.86065841,0,1,30,1
21.8662641,2047,1,30,1
21.88092351,0,1,30,1
21.89054418,1344,1,30,1
21.90466642,0,1,30,1
21.9132638,435,1,30,1
21.92487121,0,1,30,1
21.92862916,1750,1,30,1
21.93959856,0,1,30,1
21.94959092,2354,1,30,1
21.96064901,0,1,30,1
21.96666145,1981,1,30,1
21.97793984,2645,1,30,1
21.98795414,1929,1,30,1
22.00508642,2807,1,30,1
22.01188898,1984,1,30,1
22.02411675,2852,1,30,1
22.03425646,1792,1,30,1
22.04482317,2448,1,30,1
22.0545814,1823,1,30,1
22.06155276,2589,1,30,1
22.06956649,1810,1,30,1
22.0775671,2352,1,30,1
22.08560991,1812,1,30,1
22.09844947,2775,1,30,1
22.10846186,1757,1,30,1
22.12055588,2832,1,30,1
22.12709475,1841,1,30,1
22.14433193,2753,1,30,1
22.14534879,2578,1,30,1
22.15786624,554,1,30,1
22.17426753,1933,1,30,1
22.18427348,1173,1,30,1
22.19427538,1405,1,30,1
22.19839072,0,1,30,1
22.20840096,1719,1,30,1
22.22055149,2394,1,30,1
22.22931361,1713,1,30,1
22.24717426,2124,1,30,1
22.25464869,1811,1,30,1
22.26728058,2360,1,30,1
22.27489448,1562,1,30,1
22.28324628,1425,1,30,1
22.29451013,884,1,30,1
22.3046875,1725,1,30,1
22.31439972,1723,1,30,1
22.3231113,2137,1,30,1
22.33466601,1616,1,30,1
22.34447694,2639,1,30,1
22.35405469,1641,1,30,1
22.36435986,2421,1,30,1
22.37483215,1675,1,30,1
22.38414836,2352,1,30,1
22.39419985,1686,1,30,1
22.40357399,2304,1,30,1
22.41478276,1721,1,30,1
22.42291903,2854,1,30,1
22.43343472,1615,1,30,1
22.44448328,2762,1,30,1
22.45416212,1616,1,30,1
22.46425605,2143,1,30,1
22.47260928,1638,1,30,1
22.48410678,2383,1,30,1
22.49462771,1609,1,30,1
22.50403428,2251,1,30,1
22.51367569,1573,1,30,1
22.52457833,1989,1,30,1
22.53412294,1094,1,30,1
22.54401064,1237,1,30,1
22.55474043,1257,1,30,1
22.56469059,800,1,30,1
22.5732007,1629,1,30,1
22.58402085,1143,1,30,1
22.59394145,114,1,30,1
22.60424614,2118,1,30,1
22.61445665,1520,1,30,1
22.62498188,1453,1,30,1
22.63449407,2141,1,30,1
22.64450812,2499,1,30,1
22.65519476,511,1,30,1
22.66448474,2679,1,30,1
22.67437172,1409,1,30,1
22.68418622,1441,1,30,1
22.69489717,1703,1,30,1
22.70288086,1415,1,30,1
22.71440148,1456,1,30,1
22.72449517,1186,1,30,1
22.73493314,1230,1,30,1
22.74444914,1776,1,30,1
22.75408316,879,1,30,1
22.76347017,705,1,30,1
22.77026868,709,1,30,1
22.7841506,1057,1,30,1
22.7969625,1344,1,30,1
22.80496311,885,1,30,1
22.81467128,1862,1,30,1
22.8234024,1214,1,30,1
22.8345089,835,1,30,1
22.84479284,759,1,30,1
22.85464644,848,1,30,1
22.86412716,1250,1,30,1
22.87411571,1076,1,30,1
22.88413548,1241,1,30,1
22.89487505,1908,1,30,1
22.90367651,1941,1,30,1
22.91078448,1520,1,30,1
22.9243772,1599,1,30,1
22.92964554,1594,1,30,1
22.94929743,1554,1,30,1
22.9546411,1590,1,30,1
22.9645915,1767,1,30,1
22.97348547,1545,1,30,1
22.98486304,2411,1,30,1
22.99415708,1316,1,30,1
22.99875665,1201,1,30,1
23.01297355,1296,1,30,1
23.02445889,1225,1,30,1
23.03180194,1141,1,30,1
23.04427934,1197,1,30,1
23.05486631,1138,1,30,1
23.06124306,1197,1,30,1
23.07263732,1154,1,30,1
23.08465123,443,1,30,1
23.09438062,903,1,30,1
23.10446787,1535,1,30,1
23.11418033,1347,1,30,1
23.12405634,958,1,30,1
23.13470626,908,1,30,1
23.14426351,719,1,30,1
23.15422964,757,1,30,1
23.16465282,833,1,30,1
23.16874027,212,1,30,1
23.18469954,1040,1,30,1
23.194803,1078,1,30,1
23.20486331,1945,1,30,1
23.21455407,1003,1,30,1
23.22219992,876,1,30,1
23.23400187,1161,1,30,1
23.24437881,962,1,30,1
23.25640106,850,1,30,1
23.26639891,863,1,30,1
23.29806447,958,1,30,1
23.29806447,852,1,30,1
23.29806447,930,1,30,1
23.30807114,838,1,30,1
23.34638214,907,1,30,1
23.34638214,832,1,30,1
23.34638214,891,1,30,1
23.34638214,809,1,30,1
23.34638214,898,1,30,1
23.3663888,799,1,30,1
23.37950778,1035,1,30,1
23.37950778,822,1,30,1
23.40009379,548,1,30,1
23.40009379,843,1,30,1
23.41807199,1281,1,30,1
23.42469454,1178,1,30,1
23.43031693,1434,1,30,1
23.44422746,710,1,30,1
23.45841289,1383,1,30,1
23.46395016,720,1,30,1
23.47411227,1431,1,30,1
23.48169541,1066,1,30,1
23.49129891,1205,1,30,1
23.50260854,1072,1,30,1
23.52001476,1161,1,30,1
23.529778,937,1,30,1
23.53986859,960,1,30,1
23.55233574,845,1,30,1
23.55233574,641,1,30,1
23.57050824,635,1,30,1
23.57751751,814,1,30,1
23.58714771,685,1,30,1
23.59482026,720,1,30,1
23.60306239,371,1,30,1
23.61455607,1275,1,30,1
23.62453485,767,1,30,1
23.63450456,720,1,30,1
23.6447165,1248,1,30,1
23.65456867,163,1,30,1
23.66399693,176,1,30,1
23.67091274,1319,1,30,1
23.68494391,479,1,30,1
23.69478035,240,1,30,1
23.70446038,0,1,30,1
23.71461654,621,1,30,1
23.72431016,244,1,30,1
23.73435116,1599,1,30,1
23.74416471,933,1,30,1
23.75263095,62,1,30,1
23.76484728,208,1,30,1
23.77492714,1123,1,30,1
23.78225803,418,1,30,1
23.7947824,210,1,30,1
23.80420518,0,1,30,1
23.81474853,708,1,30,1
23.82282829,528,1,30,1
23.83418608,1708,1,30,1
23.84415817,752,1,30,1
23.85270953,597,1,30,1
23.86441326,164,1,30,1
23.87082219,1153,1,30,1
23.88369322,554,1,30,1
23.89476109,573,1,30,1
23.90255046,647,1,30,1
23.91395879,214,1,30,1
23.92304063,171,1,30,1
23.93477106,1591,1,30,1
23.94410563,702,1,30,1
23.95435405,2370,1,30,1
23.96332908,80,1,30,1
23.97443295,1005,1,30,1
23.98345637,357,1,30,1
23.99447107,175,1,30,1
24.00427103,64,1,30,1
24.01453733,400,1,30,1
24.02356362,137,1,30,1
24.03423214,1360,1,30,1
24.0441072,646,1,30,1
24.0545578,2378,1,30,1
24.06439829,35,1,30,1
24.07125711,821,1,30,1
24.08160472,267,1,30,1
24.09483552,186,1,30,1
24.1047976,0,1,30,1
24.11475945,305,1,30,1
24.1233108,112,1,30,1
24.13482499,834,1,30,1
24.14418721,534,1,30,1
24.15430188,210,1,30,1
24.16462469,111,1,30,1
24.17413187,607,1,30,1
24.18486571,369,1,30,1
24.20445037,325,1,30,1
24.20445037,208,1,30,1
24.21422887,335,1,30,1
24.22405005,319,1,30,1
24.23468781,400,1,30,1
24.244066,2359,1,30,1
24.25365186,1109,1,30,1
24.26431751,229,1,30,1
24.27389312,602,1,30,1
24.28484964,299,1,30,1
24.29481316,400,1,30,1
24.30407047,144,1,30,1
24.31406069,440,1,30,1
24.32066154,208,1,30,1
24.33472657,739,1,30,1
24.3440516,1610,1,30,1
24.35418081,85,1,30,1
24.36344028,0,1,30,1
24.37470031,632,1,30,1
24.38057494,505,1,30,1
24.39488554,253,1,30,1
24.40484381,403,1,30,1
24.41449928,350,1,30,1
24.41985989,804,1,30,1
24.43459511,298,1,30,1
24.44404435,976,1,30,1
24.45475435,265,1,30,1
24.46423984,746,1,30,1
24.47156382,336,1,30,1
24.48346186,2014,1,30,1
24.49479914,219,1,30,1
24.50504494,619,1,30,1
24.51422644,239,1,30,1
24.51956177,1334,1,30,1
24.5345273,241,1,30,1
24.54483438,1495,1,30,1
24.55411792,192,1,30,1
24.56426549,1197,1,30,1
24.57374454,362,1,30,1
24.58417487,1971,1,30,1
24.59420514,251,1,30,1
24.60479808,618,1,30,1
24.61479831,282,1,30,1
24.62421846,768,1,30,1
24.63439775,262,1,30,1
24.64464474,607,1,30,1
24.65485787,163,1,30,1
24.66437125,305,1,30,1
24.67310452,334,1,30,1
24.68238378,605,1,30,1
24.6942184,313,1,30,1
24.70437646,144,1,30,1
24.71347713,215,1,30,1
24.72281337,290,1,30,1
24.73444057,240,1,30,1
24.74414134,240,1,30,1
24.75478077,144,1,30,1
24.76497579,63,1,30,1
24.77159047,304,1,30,1
24.78436971,208,1,30,1
24.7945466,188,1,30,1
24.80476117,0,1,30,1
24.81461024,90,1,30,1
24.8234365,64,1,30,1
24.83475733,208,1,30,1
24.84494519,75,1,30,1
24.8549583,1629,1,30,1
24.86410689,2402,1,30,1
24.87489152,277,1,30,1
24.88443255,604,1,30,1
24.89448261,1110,1,30,1
24.90465569,688,1,30,1
24.91458392,505,1,30,1
24.92104721,0,1,30,1
24.93480015,141,1,30,1
24.94474888,528,1,30,1
24.95405626,548,1,30,1
24.96477151,0,1,30,1
24.97419524,1296,1,30,1
24.98419642,272,1,30,1
24.99442863,592,1,30,1
25.00431013,699,1,30,1
25.01492119,0,1,30,1
25.02508593,0,1,30,1
25.03336978,554,1,30,1
25.04444575,188,1,30,1
25.05478549,236,1,30,1
25.06404614,382,1,30,1
25.07248545,162,1,30,1
25.08423615,179,1,30,1
25.0947392,243,1,30,1
25.10452485,108,1,30,1
25.11431408,192,1,30,1
25.12141609,85,1,30,1
25.13401246,178,1,30,1
25.14463377,554,1,30,1
25.15312314,6,1,30,1
25.1642282,1746,1,30,1
25.17280531,1746,1,30,1
25.18423724,1835,1,30,1
25.1946733,4095,1,30,1
25.20441818,1360,1,30,1
25.21464586,4095,1,30,1
25.22388935,2583,1,30,1
25.23449659,4095,1,30,1
25.24427676,1264,1,30,1
25.25429225,4095,1,30,1
25.26325274,2209,1,30,1
25.27491665,4095,1,30,1
25.28435874,4095,1,30,1
25.29439306,2859,1,30,1
25.30388546,1723,1,30,1
25.31453562,4095,1,30,1
25.32228589,2122,1,30,1
25.33483887,4095,1,30,1
25.34490228,2301,1,30,1
25.35500121,4095,1,30,1
25.36407542,2412,1,30,1
25.37298965,4095,1,30,1
25.38465071,1632,1,30,1
25.39461517,4095,1,30,1
25.40420365,747,1,30,1
25.41456938,4095,1,30,1
25.42305994,347,1,30,1
25.43472052,4095,1,30,1
25.44447351,304,1,30,1
25.45476294,4095,1,30,1
25.4640491,274,1,30,1
25.47093225,4095,1,30,1
25.48487377,301,1,30,1
25.49450326,4095,1,30,1
25.50499415,257,1,30,1
25.5147233,4095,1,30,1
25.52159524,238,1,30,1
25.53402734,944,1,30,1
25.54462814,48,1,30,1
25.5549984,0,1,30,1
25.56483078,1442,1,30,1
25.57142758,796,1,30,1
25.58441734,801,1,30,1
25.59446692,821,1,30,1
25.60435104,1171,1,30,1
25.61492014,864,1,30,1
25.62305164,2017,1,30,1
25.63411903,1746,1,30,1
25.64471507,1854,1,30,1
25.65437293,1751,1,30,1
25.66496539,1883,1,30,1
25.67478609,208,1,30,1
25.684021,192,1,30,1
25.69403553,80,1,30,1
25.70456362,0,1,30,1
25.71446276,80,1,30,1
25.7194376,2431,1,30,1
25.73400164,179,1,30,1
25.74340487,277,1,30,1
25.75444674,4095,1,30,1
25.76299477,273,1,30,1
25.77233958,4095,1,30,1
25.784796,281,1,30,1
25.79431701,4095,1,30,1
25.80496526,211,1,30,1
25.81436229,4095,1,30,1
25.81877303,139,1,30,1
25.83436084,4095,1,30,1
25.84473801,62,1,30,1
25.85493588,4095,1,30,1
25.8649509,0,1,30,1
25.87194371,4095,1,30,1
25.88419795,148,1,30,1
25.89477134,4095,1,30,1
25.90473914,92,1,30,1
25.9145391,4095,1,30,1
25.91827011,989,1,30,1
25.93478155,3324,1,30,1
25.94313145,1391,1,30,1
25.95410705,4095,1,30,1
25.96410775,1694,1,30,1
25.9741087,3173,1,30,1
25.98435497,1326,1,30,1
25.985358,4095,1,30,1
25.99644256,1775,1,30,1
26.00648975,2446,1,30,1
26.01648879,1893,1,30,1
26.02648997,2236,1,30,1
26.04299521,1971,1,30,1
26.05430913,1962,1,30,1
26.05977106,1712,1,30,1
26.07244039,1857,1,30,1
26.0846107,1085,1,30,1
26.0950079,1633,1,30,1
26.10301161,1946,1,30,1
26.11241436,1385,1,30,1
26.12527227,1622,1,30,1
26.13528466,1490,1,30,1
26.14498353,1731,1,30,1
26.15498972,1307,1,30,1
26.16499043,1562,1,30,1
26.16740084,1296,1,30,1
26.17744327,1733,1,30,1
26.1874454,1461,1,30,1
26.19744372,1695,1,30,1
26.21128583,1267,1,30,1
26.22258615,1697,1,30,1
26.23263001,1207,1,30,1
26.24262881,1616,1,30,1
26.25262928,1375,1,30,1
26.26435423,1597,1,30,1
26.27284527,1234,1,30,1
26.27937984,1695,1,30,1
26.29384804,1191,1,30,1
26.30412865,1407,1,30,1
26.31161332,1447,1,30,1
26.32391334,1171,1,30,1
26.32653737,1406,1,30,1
26.33654523,1678,1,30,1
26.35255337,1031,1,30,1
26.36066985,2475,1,30,1
26.37072039,1738,1,30,1
26.38071966,1631,1,30,1
26.39071941,1920,1,30,1
26.40071964,256,1,30,1
26.41285777,1488,1,30,1
26.42482209,1535,1,30,1
26.43483829,1502,1,30,1
26.44500089,1488,1,30,1
26.45250821,1280,1,30,1
26.46251249,2082,1,30,1
26.4739418,560,1,30,1
26.48407555,1548,1,30,1
26.49207425,1600,1,30,1
26.50467491,1173,1,30,1
26.51049685,624,1,30,1
26.52177119,976,1,30,1
26.5272944,769,1,30,1
26.54462051,1082,1,30,1
26.55249262,1597,1,30,1
26.56276083,1398,1,30,1
26.57276106,1488,1,30,1
26.582762,1253,1,30,1
26.59484625,1042,1,30,1
26.60485983,1216,1,30,1
26.61485934,944,1,30,1
26.62485886,1330,1,30,1
26.63485932,864,1,30,1
26.64485812,1246,1,30,1
26.65253901,907,1,30,1
26.6625452,1500,1,30,1
26.67254329,1035,1,30,1
26.68413305,1702,1,30,1
26.69497299,1118,1,30,1
26.70090747,1635,1,30,1
26.70980835,1040,1,30,1
26.72231793,1686,1,30,1
26.7273705,1034,1,30,1
26.74281621,1602,1,30,1
26.75484538,1015,1,30,1
26.76486063,1595,1,30,1
26.77485752,1105,1,30,1
26.78485823,1427,1,30,1
26.79485846,1338,1,30,1
26.80487466,1675,1,30,1
26.81495428,1094,1,30,1
26.82112718,1553,1,30,1
26.8348453,1571,1,30,1
26.8448596,1630,1,30,1
26.85286975,1605,1,30,1
26.86484194,1653,1,30,1
26.8748548,1621,1,30,1
26.88485479,1546,1,30,1
26.89502215,1555,1,30,1
26.89987516,976,1,30,1
26.91398835,1543,1,30,1
26.91724563,1457,1,30,1
26.93453431,1462,1,30,1
26.94484162,1329,1,30,1
26.95270801,1531,1,30,1
26.96077275,903,1,30,1
26.97077513,1520,1,30,1
26.9807744,1397,1,30,1
26.99340963,1534,1,30,1
