Timestamp,EMG Value,massage_speed,massage_duration,relaxment_level
0.0010013580322265625,1253,1.0,30.0,2.0
0.011095762252807617,2864,1.0,30.0,2.0
0.02109503746032715,0,1.0,30.0,2.0
0.03109431266784668,2769,1.0,30.0,2.0
0.0410919189453125,0,1.0,30.0,2.0
0.05108928680419922,2902,1.0,30.0,2.0
0.06108999252319336,0,1.0,30.0,2.0
0.07108926773071289,2894,1.0,30.0,2.0
0.08108973503112793,0,1.0,30.0,2.0
0.0922245979309082,2923,1.0,30.0,2.0
0.10227656364440918,0,1.0,30.0,2.0
0.11535286903381348,2742,1.0,30.0,2.0
0.12535881996154785,0,1.0,30.0,2.0
0.13535809516906738,0,1.0,30.0,2.0
0.1453707218170166,30,1.0,30.0,2.0
0.15535831451416016,67,1.0,30.0,2.0
0.15535831451416016,5,1.0,30.0,2.0
0.17078351974487305,0,1.0,30.0,2.0
0.18082690238952637,0,1.0,30.0,2.0
0.1908276081085205,2192,1.0,30.0,2.0
0.20495176315307617,53,1.0,30.0,2.0
0.2147834300994873,224,1.0,30.0,2.0
0.2252039909362793,14,1.0,30.0,2.0
0.23421692848205566,429,1.0,30.0,2.0
0.24201321601867676,0,1.0,30.0,2.0
0.25001955032348633,428,1.0,30.0,2.0
0.26009631156921387,0,1.0,30.0,2.0
0.27013635635375977,318,1.0,30.0,2.0
0.2801370620727539,0,1.0,30.0,2.0
0.295123815536499,243,1.0,30.0,2.0
0.30513644218444824,0,1.0,30.0,2.0
0.3151545524597168,137,1.0,30.0,2.0
0.3251354694366455,0,1.0,30.0,2.0
0.3351411819458008,133,1.0,30.0,2.0
0.3451392650604248,0,1.0,30.0,2.0
0.35521793365478516,0,1.0,30.0,2.0
0.3609659671783447,0,1.0,30.0,2.0
0.3716442584991455,0,1.0,30.0,2.0
0.3825252056121826,0,1.0,30.0,2.0
0.39514636993408203,0,1.0,30.0,2.0
0.40515875816345215,0,1.0,30.0,2.0
0.41533589363098145,0,1.0,30.0,2.0
0.42503809928894043,0,1.0,30.0,2.0
0.42867231369018555,0,1.0,30.0,2.0
0.4434027671813965,0,1.0,30.0,2.0
0.45142269134521484,0,1.0,30.0,2.0
0.45844364166259766,0,1.0,30.0,2.0
0.4684596061706543,0,1.0,30.0,2.0
0.4784586429595947,0,1.0,30.0,2.0
0.49184608459472656,2834,1.0,30.0,2.0
0.4983837604522705,0,1.0,30.0,2.0
0.5147912502288818,2906,1.0,30.0,2.0
0.523395299911499,0,1.0,30.0,2.0
0.5300750732421875,0,1.0,30.0,2.0
0.5446867942810059,0,1.0,30.0,2.0
0.5551307201385498,0,1.0,30.0,2.0
0.5609545707702637,0,1.0,30.0,2.0
0.5674765110015869,0,1.0,30.0,2.0
0.5828220844268799,0,1.0,30.0,2.0
0.5905196666717529,0,1.0,30.0,2.0
0.6051201820373535,0,1.0,30.0,2.0
0.614556074142456,0,1.0,30.0,2.0
0.6250405311584473,0,1.0,30.0,2.0
0.6352264881134033,0,1.0,30.0,2.0
0.6452186107635498,0,1.0,30.0,2.0
0.6538412570953369,0,1.0,30.0,2.0
0.6651546955108643,0,1.0,30.0,2.0
0.6748485565185547,0,1.0,30.0,2.0
0.6844964027404785,0,1.0,30.0,2.0
0.6953332424163818,0,1.0,30.0,2.0
0.7013530731201172,0,1.0,30.0,2.0
0.7152969837188721,0,1.0,30.0,2.0
0.7248978614807129,36,1.0,30.0,2.0
0.7296247482299805,0,1.0,30.0,2.0
0.7453162670135498,0,1.0,30.0,2.0
0.7526047229766846,101,1.0,30.0,2.0
0.7653763294219971,87,1.0,30.0,2.0
0.7754943370819092,113,1.0,30.0,2.0
0.7789499759674072,0,1.0,30.0,2.0
0.7918069362640381,61,1.0,30.0,2.0
0.7998523712158203,0,1.0,30.0,2.0
0.8094263076782227,53,1.0,30.0,2.0
0.8194475173950195,4,1.0,30.0,2.0
0.8294498920440674,43,1.0,30.0,2.0
0.8452184200286865,0,1.0,30.0,2.0
0.8546321392059326,0,1.0,30.0,2.0
0.8597145080566406,0,1.0,30.0,2.0
0.8754227161407471,0,1.0,30.0,2.0
0.8844795227050781,0,1.0,30.0,2.0
0.8927063941955566,0,1.0,30.0,2.0
0.9051854610443115,0,1.0,30.0,2.0
0.9153952598571777,0,1.0,30.0,2.0
0.9216229915618896,0,1.0,30.0,2.0
0.9316675662994385,0,1.0,30.0,2.0
0.9452054500579834,0,1.0,30.0,2.0
0.9531261920928955,0,1.0,30.0,2.0
0.9608032703399658,0,1.0,30.0,2.0
0.9750339984893799,0,1.0,30.0,2.0
0.9845316410064697,0,1.0,30.0,2.0
0.9950287342071533,34,1.0,30.0,2.0
1.000051498413086,0,1.0,30.0,2.0
1.014852523803711,0,1.0,30.0,2.0
1.0246012210845947,0,1.0,30.0,2.0
1.031463861465454,196,1.0,30.0,2.0
1.0444211959838867,155,1.0,30.0,2.0
1.0514976978302002,223,1.0,30.0,2.0
1.0646159648895264,4095,1.0,30.0,2.0
1.074526309967041,960,1.0,30.0,2.0
1.0848808288574219,4095,1.0,30.0,2.0
1.0919172763824463,1392,1.0,30.0,2.0
1.0999195575714111,4095,1.0,30.0,2.0
1.1098644733428955,1458,1.0,30.0,2.0
1.1257691383361816,4095,1.0,30.0,2.0
1.1273105144500732,1746,1.0,30.0,2.0
1.1435890197753906,4095,1.0,30.0,2.0
1.1553099155426025,1039,1.0,30.0,2.0
1.159071445465088,4095,1.0,30.0,2.0
1.1753230094909668,1202,1.0,30.0,2.0
1.1846141815185547,4095,1.0,30.0,2.0
1.1916494369506836,2070,1.0,30.0,2.0
1.2009873390197754,4095,1.0,30.0,2.0
1.2151291370391846,743,1.0,30.0,2.0
1.2257583141326904,4095,1.0,30.0,2.0
1.2272534370422363,672,1.0,30.0,2.0
1.2428221702575684,4095,1.0,30.0,2.0
1.2524397373199463,87,1.0,30.0,2.0
1.2597012519836426,4095,1.0,30.0,2.0
1.2749910354614258,0,1.0,30.0,2.0
1.2853124141693115,367,1.0,30.0,2.0
1.2951281070709229,0,1.0,30.0,2.0
1.3050432205200195,0,1.0,30.0,2.0
1.3146309852600098,0,1.0,30.0,2.0
1.325427532196045,0,1.0,30.0,2.0
1.3300261497497559,0,1.0,30.0,2.0
1.3453378677368164,0,1.0,30.0,2.0
1.3522727489471436,0,1.0,30.0,2.0
1.3601293563842773,0,1.0,30.0,2.0
1.3751838207244873,0,1.0,30.0,2.0
1.3827109336853027,0,1.0,30.0,2.0
1.3932304382324219,0,1.0,30.0,2.0
1.4049201011657715,191,1.0,30.0,2.0
1.4131815433502197,0,1.0,30.0,2.0
1.425471305847168,133,1.0,30.0,2.0
1.4270334243774414,0,1.0,30.0,2.0
1.4418046474456787,0,1.0,30.0,2.0
1.4507591724395752,0,1.0,30.0,2.0
1.4647183418273926,0,1.0,30.0,2.0
1.4751002788543701,28,1.0,30.0,2.0
1.4852838516235352,0,1.0,30.0,2.0
1.4956440925598145,0,1.0,30.0,2.0
1.5049517154693604,16,1.0,30.0,2.0
1.5117268562316895,0,1.0,30.0,2.0
1.5249462127685547,166,1.0,30.0,2.0
1.5329484939575195,0,1.0,30.0,2.0
1.5447134971618652,0,1.0,30.0,2.0
1.5552027225494385,0,1.0,30.0,2.0
1.5652906894683838,74,1.0,30.0,2.0
1.5748929977416992,0,1.0,30.0,2.0
1.5838932991027832,139,1.0,30.0,2.0
1.5921895503997803,179,1.0,30.0,2.0
1.6050128936767578,214,1.0,30.0,2.0
1.6124317646026611,0,1.0,30.0,2.0
1.6247334480285645,0,1.0,30.0,2.0
1.6287708282470703,0,1.0,30.0,2.0
1.6432569026947021,467,1.0,30.0,2.0
1.65126371383667,147,1.0,30.0,2.0
1.6655638217926025,1452,1.0,30.0,2.0
1.6754884719848633,1274,1.0,30.0,2.0
1.6843969821929932,1575,1.0,30.0,2.0
1.6916782855987549,562,1.0,30.0,2.0
1.704639196395874,1622,1.0,30.0,2.0
1.7149536609649658,688,1.0,30.0,2.0
1.7248485088348389,1127,1.0,30.0,2.0
1.7344224452972412,362,1.0,30.0,2.0
1.7435662746429443,843,1.0,30.0,2.0
1.7520174980163574,995,1.0,30.0,2.0
1.7653958797454834,1326,1.0,30.0,2.0
1.7746543884277344,1215,1.0,30.0,2.0
1.7829334735870361,1754,1.0,30.0,2.0
1.7957875728607178,586,1.0,30.0,2.0
1.8053948879241943,1543,1.0,30.0,2.0
1.8119988441467285,1394,1.0,30.0,2.0
1.8254008293151855,1186,1.0,30.0,2.0
1.83522367477417,321,1.0,30.0,2.0
1.8427317142486572,758,1.0,30.0,2.0
1.8519675731658936,922,1.0,30.0,2.0
1.8648037910461426,1215,1.0,30.0,2.0
1.874786138534546,976,1.0,30.0,2.0
1.8812429904937744,351,1.0,30.0,2.0
1.8955142498016357,108,1.0,30.0,2.0
1.9037878513336182,206,1.0,30.0,2.0
1.9150683879852295,110,1.0,30.0,2.0
1.924797534942627,208,1.0,30.0,2.0
1.9278795719146729,115,1.0,30.0,2.0
1.942528486251831,205,1.0,30.0,2.0
1.9505703449249268,135,1.0,30.0,2.0
1.958134412765503,177,1.0,30.0,2.0
1.9753308296203613,345,1.0,30.0,2.0
1.985337734222412,145,1.0,30.0,2.0
1.9953358173370361,2151,1.0,30.0,2.0
1.9965593814849854,624,1.0,30.0,2.0
2.006603240966797,944,1.0,30.0,2.0
2.0187134742736816,688,1.0,30.0,2.0
2.0342869758605957,414,1.0,30.0,2.0
2.0442991256713867,182,1.0,30.0,2.0
2.0543041229248047,480,1.0,30.0,2.0
2.057136297225952,576,1.0,30.0,2.0
2.0671777725219727,393,1.0,30.0,2.0
2.0771782398223877,1029,1.0,30.0,2.0
2.0884406566619873,830,1.0,30.0,2.0
2.103804588317871,1591,1.0,30.0,2.0
2.1115307807922363,2253,1.0,30.0,2.0
2.1192054748535156,1088,1.0,30.0,2.0
2.13468861579895,227,1.0,30.0,2.0
2.145148754119873,775,1.0,30.0,2.0
2.1497859954833984,842,1.0,30.0,2.0
2.1651036739349365,900,1.0,30.0,2.0
2.1750082969665527,1205,1.0,30.0,2.0
2.1827945709228516,1418,1.0,30.0,2.0
2.195089817047119,773,1.0,30.0,2.0
2.2044222354888916,4095,1.0,30.0,2.0
2.212536573410034,876,1.0,30.0,2.0
2.2246642112731934,4095,1.0,30.0,2.0
2.235280990600586,230,1.0,30.0,2.0
2.2424216270446777,4095,1.0,30.0,2.0
2.251316785812378,115,1.0,30.0,2.0
2.2580909729003906,4095,1.0,30.0,2.0
2.2748727798461914,7,1.0,30.0,2.0
2.283681869506836,4095,1.0,30.0,2.0
2.2951066493988037,25,1.0,30.0,2.0
2.3051981925964355,4095,1.0,30.0,2.0
2.315120220184326,1,1.0,30.0,2.0
2.318286895751953,4095,1.0,30.0,2.0
2.3282980918884277,0,1.0,30.0,2.0
2.3452296257019043,1185,1.0,30.0,2.0
2.3524725437164307,1333,1.0,30.0,2.0
2.3588674068450928,1733,1.0,30.0,2.0
2.3752336502075195,998,1.0,30.0,2.0
2.3816139698028564,992,1.0,30.0,2.0
2.395277261734009,1593,1.0,30.0,2.0
2.3972651958465576,2080,1.0,30.0,2.0
2.4151530265808105,951,1.0,30.0,2.0
2.4189867973327637,1289,1.0,30.0,2.0
2.4335289001464844,1041,1.0,30.0,2.0
2.4423718452453613,1478,1.0,30.0,2.0
2.451141834259033,1509,1.0,30.0,2.0
2.4650158882141113,1412,1.0,30.0,2.0
2.4753684997558594,1419,1.0,30.0,2.0
2.485098123550415,1518,1.0,30.0,2.0
2.495006561279297,1903,1.0,30.0,2.0
2.5035698413848877,2064,1.0,30.0,2.0
2.5152416229248047,1385,1.0,30.0,2.0
2.525320291519165,1535,1.0,30.0,2.0
2.534088134765625,1216,1.0,30.0,2.0
2.5443334579467773,1792,1.0,30.0,2.0
2.552813768386841,1882,1.0,30.0,2.0
2.5654664039611816,1600,1.0,30.0,2.0
2.575234889984131,1843,1.0,30.0,2.0
2.584721326828003,1417,1.0,30.0,2.0
2.5952818393707275,2106,1.0,30.0,2.0
2.603591203689575,2086,1.0,30.0,2.0
2.6153290271759033,1501,1.0,30.0,2.0
2.6251401901245117,587,1.0,30.0,2.0
2.634859085083008,0,1.0,30.0,2.0
2.644989490509033,1169,1.0,30.0,2.0
2.65496826171875,0,1.0,30.0,2.0
2.66546368598938,1040,1.0,30.0,2.0
2.6751818656921387,0,1.0,30.0,2.0
2.6788148880004883,918,1.0,30.0,2.0
2.694162130355835,0,1.0,30.0,2.0
2.702169418334961,1132,1.0,30.0,2.0
2.7150518894195557,0,1.0,30.0,2.0
2.725337266921997,752,1.0,30.0,2.0
2.7333755493164062,0,1.0,30.0,2.0
2.7416365146636963,1270,1.0,30.0,2.0
2.749711751937866,0,1.0,30.0,2.0
2.763230323791504,1997,1.0,30.0,2.0
2.774709463119507,0,1.0,30.0,2.0
2.7846221923828125,1722,1.0,30.0,2.0
2.7932913303375244,0,1.0,30.0,2.0
2.8033225536346436,974,1.0,30.0,2.0
2.8093488216400146,0,1.0,30.0,2.0
2.8236782550811768,790,1.0,30.0,2.0
2.835411310195923,0,1.0,30.0,2.0
2.845452070236206,675,1.0,30.0,2.0
2.855435609817505,0,1.0,30.0,2.0
2.8654396533966064,624,1.0,30.0,2.0
2.8754377365112305,0,1.0,30.0,2.0
2.8829338550567627,582,1.0,30.0,2.0
2.8853206634521484,0,1.0,30.0,2.0
2.8974390029907227,457,1.0,30.0,2.0
2.9074854850769043,0,1.0,30.0,2.0
2.9250001907348633,361,1.0,30.0,2.0
2.9350292682647705,0,1.0,30.0,2.0
2.9450294971466064,317,1.0,30.0,2.0
2.9551939964294434,1318,1.0,30.0,2.0
2.956190347671509,1282,1.0,30.0,2.0
2.974989652633667,1262,1.0,30.0,2.0
2.9846718311309814,1203,1.0,30.0,2.0
2.994990825653076,1695,1.0,30.0,2.0
3.0024964809417725,1712,1.0,30.0,2.0
3.0110132694244385,1375,1.0,30.0,2.0
3.024813652038574,1791,1.0,30.0,2.0
3.0340278148651123,1856,1.0,30.0,2.0
3.045114517211914,1603,1.0,30.0,2.0
3.05527400970459,483,1.0,30.0,2.0
3.0639069080352783,0,1.0,30.0,2.0
3.074553966522217,0,1.0,30.0,2.0
3.0849380493164062,0,1.0,30.0,2.0
3.09261417388916,0,1.0,30.0,2.0
3.1027300357818604,0,1.0,30.0,2.0
3.114882707595825,0,1.0,30.0,2.0
3.1252200603485107,0,1.0,30.0,2.0
3.1332473754882812,0,1.0,30.0,2.0
3.1448071002960205,61,1.0,30.0,2.0
3.150892496109009,0,1.0,30.0,2.0
3.165365219116211,224,1.0,30.0,2.0
3.1752195358276367,0,1.0,30.0,2.0
3.185833692550659,311,1.0,30.0,2.0
3.1947059631347656,0,1.0,30.0,2.0
3.2036995887756348,403,1.0,30.0,2.0
3.2150909900665283,0,1.0,30.0,2.0
3.225024700164795,433,1.0,30.0,2.0
3.2335474491119385,0,1.0,30.0,2.0
3.2446916103363037,522,1.0,30.0,2.0
3.249016284942627,0,1.0,30.0,2.0
3.26346492767334,555,1.0,30.0,2.0
3.275123119354248,0,1.0,30.0,2.0
3.2843527793884277,537,1.0,30.0,2.0
3.2946765422821045,0,1.0,30.0,2.0
3.3006601333618164,0,1.0,30.0,2.0
3.313647985458374,858,1.0,30.0,2.0
3.325343132019043,1959,1.0,30.0,2.0
3.3336663246154785,1279,1.0,30.0,2.0
3.345196485519409,1525,1.0,30.0,2.0
3.3553755283355713,1101,1.0,30.0,2.0
3.362889051437378,1337,1.0,30.0,2.0
3.3750932216644287,1986,1.0,30.0,2.0
3.3854076862335205,1872,1.0,30.0,2.0
3.3949973583221436,1779,1.0,30.0,2.0
3.4043025970458984,1155,1.0,30.0,2.0
3.414437770843506,110,1.0,30.0,2.0
3.4256107807159424,157,1.0,30.0,2.0
3.4349753856658936,0,1.0,30.0,2.0
3.445359945297241,285,1.0,30.0,2.0
3.4540798664093018,0,1.0,30.0,2.0
3.465052843093872,432,1.0,30.0,2.0
3.475212335586548,0,1.0,30.0,2.0
3.4852240085601807,322,1.0,30.0,2.0
3.494762897491455,0,1.0,30.0,2.0
3.500234842300415,276,1.0,30.0,2.0
3.514711380004883,0,1.0,30.0,2.0
3.5245230197906494,167,1.0,30.0,2.0
3.535362720489502,0,1.0,30.0,2.0
3.5452866554260254,0,1.0,30.0,2.0
3.5507686138153076,71,1.0,30.0,2.0
3.5645062923431396,0,1.0,30.0,2.0
3.5748631954193115,47,1.0,30.0,2.0
3.585270404815674,0,1.0,30.0,2.0
3.594883918762207,105,1.0,30.0,2.0
3.601701021194458,131,1.0,30.0,2.0
3.615046739578247,61,1.0,30.0,2.0
3.62519907951355,264,1.0,30.0,2.0
3.635134696960449,66,1.0,30.0,2.0
3.6447348594665527,238,1.0,30.0,2.0
3.652151584625244,733,1.0,30.0,2.0
3.663954257965088,1349,1.0,30.0,2.0
3.6751911640167236,1442,1.0,30.0,2.0
3.684612274169922,1566,1.0,30.0,2.0
3.694716691970825,1751,1.0,30.0,2.0
3.702054023742676,1234,1.0,30.0,2.0
3.7134218215942383,890,1.0,30.0,2.0
3.7253878116607666,791,1.0,30.0,2.0
3.7319490909576416,848,1.0,30.0,2.0
3.7446625232696533,610,1.0,30.0,2.0
3.753753423690796,0,1.0,30.0,2.0
3.7652015686035156,945,1.0,30.0,2.0
3.774954319000244,0,1.0,30.0,2.0
3.7846736907958984,1056,1.0,30.0,2.0
3.7951748371124268,0,1.0,30.0,2.0
3.7995457649230957,1107,1.0,30.0,2.0
3.8144748210906982,0,1.0,30.0,2.0
3.825369358062744,848,1.0,30.0,2.0
3.835170269012451,0,1.0,30.0,2.0
3.8450207710266113,711,1.0,30.0,2.0
3.8531494140625,0,1.0,30.0,2.0
3.8647449016571045,540,1.0,30.0,2.0
3.8748624324798584,0,1.0,30.0,2.0
3.8853073120117188,711,1.0,30.0,2.0
3.8946027755737305,0,1.0,30.0,2.0
3.905301570892334,645,1.0,30.0,2.0
3.915151357650757,0,1.0,30.0,2.0
3.9250035285949707,661,1.0,30.0,2.0
3.934969186782837,0,1.0,30.0,2.0
3.9446651935577393,578,1.0,30.0,2.0
3.947599411010742,0,1.0,30.0,2.0
3.9653000831604004,537,1.0,30.0,2.0
3.9750022888183594,208,1.0,30.0,2.0
3.9849705696105957,848,1.0,30.0,2.0
3.9943997859954834,281,1.0,30.0,2.0
4.002911329269409,366,1.0,30.0,2.0
4.014824151992798,101,1.0,30.0,2.0
4.025315523147583,428,1.0,30.0,2.0
4.032856464385986,251,1.0,30.0,2.0
4.044965744018555,332,1.0,30.0,2.0
4.055156230926514,0,1.0,30.0,2.0
4.064325332641602,752,1.0,30.0,2.0
4.074827194213867,0,1.0,30.0,2.0
4.083605527877808,821,1.0,30.0,2.0
4.094822883605957,0,1.0,30.0,2.0
4.09791374206543,837,1.0,30.0,2.0
4.11444616317749,0,1.0,30.0,2.0
4.125420093536377,858,1.0,30.0,2.0
4.133851766586304,0,1.0,30.0,2.0
4.144412517547607,928,1.0,30.0,2.0
4.152635812759399,0,1.0,30.0,2.0
4.164345741271973,933,1.0,30.0,2.0
4.174774408340454,0,1.0,30.0,2.0
4.184896945953369,934,1.0,30.0,2.0
4.195555925369263,0,1.0,30.0,2.0
4.20356297492981,956,1.0,30.0,2.0
4.214211463928223,0,1.0,30.0,2.0
4.225451469421387,962,1.0,30.0,2.0
4.234201908111572,0,1.0,30.0,2.0
4.244873523712158,943,1.0,30.0,2.0
4.255047798156738,0,1.0,30.0,2.0
4.265186309814453,874,1.0,30.0,2.0
4.27461051940918,0,1.0,30.0,2.0
4.28497576713562,653,1.0,30.0,2.0
4.29484486579895,141,1.0,30.0,2.0
4.298986911773682,195,1.0,30.0,2.0
4.315224647521973,0,1.0,30.0,2.0
4.3247950077056885,0,1.0,30.0,2.0
4.333151817321777,2461,1.0,30.0,2.0
4.345365285873413,1431,1.0,30.0,2.0
4.352423191070557,2582,1.0,30.0,2.0
4.3630712032318115,976,1.0,30.0,2.0
4.375570058822632,0,1.0,30.0,2.0
4.383842945098877,818,1.0,30.0,2.0
4.3946006298065186,1997,1.0,30.0,2.0
4.405337572097778,622,1.0,30.0,2.0
4.408933639526367,0,1.0,30.0,2.0
4.425457239151001,566,1.0,30.0,2.0
4.434464931488037,0,1.0,30.0,2.0
4.444694995880127,425,1.0,30.0,2.0
4.452706813812256,0,1.0,30.0,2.0
4.459807634353638,369,1.0,30.0,2.0
4.474640607833862,0,1.0,30.0,2.0
4.4849021434783936,139,1.0,30.0,2.0
4.494468450546265,0,1.0,30.0,2.0
4.5052900314331055,272,1.0,30.0,2.0
4.514019966125488,0,1.0,30.0,2.0
4.52468204498291,198,1.0,30.0,2.0
4.5350165367126465,0,1.0,30.0,2.0
4.5452351570129395,201,1.0,30.0,2.0
4.550083875656128,0,1.0,30.0,2.0
4.565070867538452,187,1.0,30.0,2.0
4.574644565582275,0,1.0,30.0,2.0
4.581031084060669,91,1.0,30.0,2.0
4.594906330108643,525,1.0,30.0,2.0
4.60576605796814,836,1.0,30.0,2.0
4.615430593490601,330,1.0,30.0,2.0
4.62489914894104,604,1.0,30.0,2.0
4.63103175163269,912,1.0,30.0,2.0
4.645375490188599,1055,1.0,30.0,2.0
4.652851343154907,814,1.0,30.0,2.0
4.663339853286743,0,1.0,30.0,2.0
4.674944162368774,0,1.0,30.0,2.0
4.685184001922607,0,1.0,30.0,2.0
4.694429636001587,0,1.0,30.0,2.0
4.705135822296143,886,1.0,30.0,2.0
4.715158939361572,0,1.0,30.0,2.0
4.724630355834961,2315,1.0,30.0,2.0
4.735430479049683,2630,1.0,30.0,2.0
4.744985103607178,186,1.0,30.0,2.0
4.751384258270264,0,1.0,30.0,2.0
4.764655113220215,83,1.0,30.0,2.0
4.774660110473633,0,1.0,30.0,2.0
4.783668041229248,143,1.0,30.0,2.0
4.79198956489563,1267,1.0,30.0,2.0
4.800008535385132,208,1.0,30.0,2.0
4.8082275390625,2407,1.0,30.0,2.0
4.824863910675049,166,1.0,30.0,2.0
4.833019018173218,2284,1.0,30.0,2.0
4.843522787094116,171,1.0,30.0,2.0
4.851520538330078,2186,1.0,30.0,2.0
4.859076976776123,134,1.0,30.0,2.0
4.87482213973999,1813,1.0,30.0,2.0
4.883785009384155,123,1.0,30.0,2.0
4.891719579696655,0,1.0,30.0,2.0
4.905239582061768,247,1.0,30.0,2.0
4.915279388427734,0,1.0,30.0,2.0
4.925237417221069,387,1.0,30.0,2.0
4.934730768203735,347,1.0,30.0,2.0
4.94482684135437,791,1.0,30.0,2.0
4.9520063400268555,687,1.0,30.0,2.0
4.964030504226685,578,1.0,30.0,2.0
4.975089073181152,432,1.0,30.0,2.0
4.983824253082275,619,1.0,30.0,2.0
4.994870185852051,473,1.0,30.0,2.0
5.005489826202393,2289,1.0,30.0,2.0
5.014843463897705,181,1.0,30.0,2.0
5.0252907276153564,0,1.0,30.0,2.0
5.027904510498047,1610,1.0,30.0,2.0
5.043126821517944,15,1.0,30.0,2.0
5.051140308380127,0,1.0,30.0,2.0
5.065419912338257,50,1.0,30.0,2.0
5.075172185897827,0,1.0,30.0,2.0
5.083935022354126,37,1.0,30.0,2.0
5.091306686401367,0,1.0,30.0,2.0
5.100612640380859,0,1.0,30.0,2.0
5.1080100536346436,2569,1.0,30.0,2.0
5.124952077865601,0,1.0,30.0,2.0
5.134613990783691,98,1.0,30.0,2.0
5.144848585128784,0,1.0,30.0,2.0
5.150578737258911,0,1.0,30.0,2.0
5.1651225090026855,0,1.0,30.0,2.0
5.174525022506714,0,1.0,30.0,2.0
5.18300199508667,0,1.0,30.0,2.0
5.194586753845215,2599,1.0,30.0,2.0
5.20101523399353,35,1.0,30.0,2.0
5.2154929637908936,2671,1.0,30.0,2.0
5.225257158279419,111,1.0,30.0,2.0
5.235397577285767,2624,1.0,30.0,2.0
5.241719484329224,194,1.0,30.0,2.0
5.250707149505615,2693,1.0,30.0,2.0
5.258369445800781,155,1.0,30.0,2.0
5.2748122215271,80,1.0,30.0,2.0
5.282824754714966,366,1.0,30.0,2.0
5.293301105499268,339,1.0,30.0,2.0
5.3053553104400635,448,1.0,30.0,2.0
5.312077283859253,320,1.0,30.0,2.0
5.325440168380737,269,1.0,30.0,2.0
5.336824178695679,376,1.0,30.0,2.0
5.344564199447632,695,1.0,30.0,2.0
5.354490280151367,2347,1.0,30.0,2.0
5.365577697753906,87,1.0,30.0,2.0
5.3755042552948,2662,1.0,30.0,2.0
5.382462024688721,159,1.0,30.0,2.0
5.391805648803711,2544,1.0,30.0,2.0
5.3999011516571045,150,1.0,30.0,2.0
5.407519578933716,2593,1.0,30.0,2.0
5.425671100616455,149,1.0,30.0,2.0
5.435117244720459,2452,1.0,30.0,2.0
5.445067882537842,176,1.0,30.0,2.0
5.453084230422974,2416,1.0,30.0,2.0
5.465359210968018,3245,1.0,30.0,2.0
5.474822044372559,2325,1.0,30.0,2.0
5.482956647872925,178,1.0,30.0,2.0
5.492444276809692,2408,1.0,30.0,2.0
5.500460386276245,173,1.0,30.0,2.0
5.515100002288818,2514,1.0,30.0,2.0
5.525500774383545,154,1.0,30.0,2.0
5.5355095863342285,2400,1.0,30.0,2.0
5.541255474090576,173,1.0,30.0,2.0
5.553056716918945,2391,1.0,30.0,2.0
5.564613580703735,183,1.0,30.0,2.0
5.574703693389893,2421,1.0,30.0,2.0
5.5807013511657715,116,1.0,30.0,2.0
5.5926353931427,2412,1.0,30.0,2.0
5.600677013397217,173,1.0,30.0,2.0
5.608378171920776,2505,1.0,30.0,2.0
5.625744581222534,193,1.0,30.0,2.0
5.634921073913574,2313,1.0,30.0,2.0
5.642246246337891,158,1.0,30.0,2.0
5.65025782585144,2266,1.0,30.0,2.0
5.658181667327881,138,1.0,30.0,2.0
5.673818826675415,530,1.0,30.0,2.0
5.682693243026733,176,1.0,30.0,2.0
5.695034742355347,64,1.0,30.0,2.0
5.704051494598389,208,1.0,30.0,2.0
5.708162307739258,2439,1.0,30.0,2.0
5.725073575973511,231,1.0,30.0,2.0
5.735489368438721,2800,1.0,30.0,2.0
5.7409422397613525,118,1.0,30.0,2.0
5.749901056289673,2480,1.0,30.0,2.0
5.757662057876587,558,1.0,30.0,2.0
5.773756265640259,2352,1.0,30.0,2.0
5.78446102142334,1605,1.0,30.0,2.0
5.7948527336120605,2144,1.0,30.0,2.0
5.803853988647461,3022,1.0,30.0,2.0
5.815546274185181,1962,1.0,30.0,2.0
5.825275421142578,3603,1.0,30.0,2.0
5.827134847640991,1915,1.0,30.0,2.0
5.845472097396851,880,1.0,30.0,2.0
5.855549097061157,1606,1.0,30.0,2.0
5.858356475830078,3633,1.0,30.0,2.0
5.875063180923462,1822,1.0,30.0,2.0
5.875966548919678,4095,1.0,30.0,2.0
5.891740322113037,1742,1.0,30.0,2.0
5.903259992599487,4095,1.0,30.0,2.0
5.909639835357666,1809,1.0,30.0,2.0
5.925245523452759,4081,1.0,30.0,2.0
5.927109241485596,1809,1.0,30.0,2.0
5.941722393035889,3184,1.0,30.0,2.0
5.951773643493652,1482,1.0,30.0,2.0
5.965472459793091,3581,1.0,30.0,2.0
5.9752819538116455,1711,1.0,30.0,2.0
5.976076602935791,3411,1.0,30.0,2.0
5.990412712097168,1840,1.0,30.0,2.0
6.00524377822876,3616,1.0,30.0,2.0
6.015661954879761,1617,1.0,30.0,2.0
6.024450302124023,3722,1.0,30.0,2.0
6.033509969711304,1632,1.0,30.0,2.0
6.041823625564575,3606,1.0,30.0,2.0
6.055563926696777,1609,1.0,30.0,2.0
6.064452886581421,3891,1.0,30.0,2.0
6.075332880020142,1630,1.0,30.0,2.0
6.076087236404419,3506,1.0,30.0,2.0
6.095426082611084,1808,1.0,30.0,2.0
6.105600833892822,3406,1.0,30.0,2.0
6.115553379058838,1278,1.0,30.0,2.0
6.125187397003174,3469,1.0,30.0,2.0
6.1354570388793945,1179,1.0,30.0,2.0
6.145468711853027,3248,1.0,30.0,2.0
6.155484199523926,1319,1.0,30.0,2.0
6.165470838546753,3120,1.0,30.0,2.0
6.175202131271362,1722,1.0,30.0,2.0
6.184452056884766,2896,1.0,30.0,2.0
6.195295810699463,1776,1.0,30.0,2.0
6.204468488693237,3047,1.0,30.0,2.0
6.215191125869751,1381,1.0,30.0,2.0
6.223409175872803,3200,1.0,30.0,2.0
6.234428644180298,1761,1.0,30.0,2.0
6.245303392410278,3111,1.0,30.0,2.0
6.254437446594238,103,1.0,30.0,2.0
6.264484643936157,3267,1.0,30.0,2.0
6.274070978164673,1529,1.0,30.0,2.0
6.274070978164673,0,1.0,30.0,2.0
6.2953386306762695,1318,1.0,30.0,2.0
6.304457664489746,3195,1.0,30.0,2.0
6.314480304718018,1575,1.0,30.0,2.0
6.324054479598999,3471,1.0,30.0,2.0
6.3344457149505615,1543,1.0,30.0,2.0
6.345323324203491,3290,1.0,30.0,2.0
6.354419708251953,1514,1.0,30.0,2.0
6.365318059921265,3458,1.0,30.0,2.0
6.375064373016357,1491,1.0,30.0,2.0
6.384450674057007,3405,1.0,30.0,2.0
6.395300388336182,1424,1.0,30.0,2.0
6.4044413566589355,3389,1.0,30.0,2.0
6.414292097091675,1391,1.0,30.0,2.0
6.4250757694244385,3213,1.0,30.0,2.0
6.435305833816528,1346,1.0,30.0,2.0
6.445411682128906,2896,1.0,30.0,2.0
6.455290079116821,1419,1.0,30.0,2.0
6.4644529819488525,2481,1.0,30.0,2.0
6.473933458328247,1425,1.0,30.0,2.0
6.4853198528289795,2115,1.0,30.0,2.0
6.491689920425415,1409,1.0,30.0,2.0
6.504467487335205,1247,1.0,30.0,2.0
6.5145063400268555,2173,1.0,30.0,2.0
6.525050163269043,1511,1.0,30.0,2.0
6.534425735473633,2173,1.0,30.0,2.0
6.545299530029297,1275,1.0,30.0,2.0
6.554439306259155,1808,1.0,30.0,2.0
6.564480543136597,1152,1.0,30.0,2.0
6.5750181674957275,1648,1.0,30.0,2.0
6.584442853927612,705,1.0,30.0,2.0
6.595330715179443,1522,1.0,30.0,2.0
6.604431629180908,1330,1.0,30.0,2.0
6.614456653594971,1856,1.0,30.0,2.0
6.624594688415527,933,1.0,30.0,2.0
6.634389877319336,1592,1.0,30.0,2.0
6.655275583267212,1829,1.0,30.0,2.0
6.655275583267212,1264,1.0,30.0,2.0
6.664265155792236,1904,1.0,30.0,2.0
6.674187421798706,1232,1.0,30.0,2.0
6.68437933921814,818,1.0,30.0,2.0
6.694407939910889,1155,1.0,30.0,2.0
6.704421520233154,1815,1.0,30.0,2.0
6.714505672454834,1136,1.0,30.0,2.0
6.725007057189941,1757,1.0,30.0,2.0
6.734450340270996,1117,1.0,30.0,2.0
6.7445056438446045,594,1.0,30.0,2.0
6.754439353942871,1243,1.0,30.0,2.0
6.764490842819214,625,1.0,30.0,2.0
6.774989604949951,1354,1.0,30.0,2.0
6.784435987472534,720,1.0,30.0,2.0
6.794450998306274,1712,1.0,30.0,2.0
6.804444074630737,2032,1.0,30.0,2.0
6.815294504165649,1378,1.0,30.0,2.0
6.823961973190308,1900,1.0,30.0,2.0
6.835293531417847,1553,1.0,30.0,2.0
6.844761371612549,1947,1.0,30.0,2.0
6.855367183685303,1392,1.0,30.0,2.0
6.85871958732605,2192,1.0,30.0,2.0
6.874778747558594,1425,1.0,30.0,2.0
6.8846423625946045,1950,1.0,30.0,2.0
6.8944525718688965,1207,1.0,30.0,2.0
6.90442419052124,1904,1.0,30.0,2.0
6.914469480514526,1456,1.0,30.0,2.0
6.925168514251709,481,1.0,30.0,2.0
6.926168203353882,1091,1.0,30.0,2.0
6.9444780349731445,525,1.0,30.0,2.0
6.954438209533691,1103,1.0,30.0,2.0
6.965295076370239,1206,1.0,30.0,2.0
6.974965810775757,1129,1.0,30.0,2.0
6.985410690307617,1329,1.0,30.0,2.0
6.9953248500823975,1177,1.0,30.0,2.0
7.004444599151611,192,1.0,30.0,2.0
7.014456748962402,1200,1.0,30.0,2.0
7.024941921234131,1440,1.0,30.0,2.0
7.024941921234131,7,1.0,30.0,2.0
7.044439315795898,1329,1.0,30.0,2.0
7.0483012199401855,1636,1.0,30.0,2.0
7.064453601837158,1620,1.0,30.0,2.0
7.075190305709839,1105,1.0,30.0,2.0
7.085326910018921,1138,1.0,30.0,2.0
7.090531349182129,943,1.0,30.0,2.0
7.105491399765015,1286,1.0,30.0,2.0
7.114517450332642,926,1.0,30.0,2.0
7.124982595443726,320,1.0,30.0,2.0
7.1354289054870605,1423,1.0,30.0,2.0
7.1455466747283936,1853,1.0,30.0,2.0
7.155449151992798,825,1.0,30.0,2.0
7.164577484130859,1807,1.0,30.0,2.0
7.175220012664795,780,1.0,30.0,2.0
7.184528350830078,1630,1.0,30.0,2.0
7.195292711257935,820,1.0,30.0,2.0
7.204418659210205,1325,1.0,30.0,2.0
7.2144715785980225,1618,1.0,30.0,2.0
7.2238664627075195,1408,1.0,30.0,2.0
7.23439621925354,1530,1.0,30.0,2.0
7.245368719100952,1151,1.0,30.0,2.0
7.254441499710083,1495,1.0,30.0,2.0
7.264473915100098,943,1.0,30.0,2.0
7.275214195251465,1190,1.0,30.0,2.0
7.284297704696655,975,1.0,30.0,2.0
7.294297456741333,1321,1.0,30.0,2.0
7.303245782852173,576,1.0,30.0,2.0
7.3139472007751465,1819,1.0,30.0,2.0
7.323737144470215,2105,1.0,30.0,2.0
7.334698677062988,1659,1.0,30.0,2.0
7.3445143699646,1999,1.0,30.0,2.0
7.355000019073486,1648,1.0,30.0,2.0
7.364373683929443,1339,1.0,30.0,2.0
7.374695777893066,1600,1.0,30.0,2.0
7.38422155380249,1072,1.0,30.0,2.0
7.394675254821777,1099,1.0,30.0,2.0
7.405080795288086,1174,1.0,30.0,2.0
7.414619445800781,1531,1.0,30.0,2.0
7.424557209014893,1376,1.0,30.0,2.0
7.434490919113159,1669,1.0,30.0,2.0
7.445200443267822,776,1.0,30.0,2.0
7.454958200454712,1371,1.0,30.0,2.0
7.4650492668151855,1296,1.0,30.0,2.0
7.474889516830444,1630,1.0,30.0,2.0
7.484977722167969,1062,1.0,30.0,2.0
7.4945197105407715,863,1.0,30.0,2.0
7.504194259643555,845,1.0,30.0,2.0
7.51466178894043,778,1.0,30.0,2.0
7.524430751800537,1913,1.0,30.0,2.0
7.534886360168457,1629,1.0,30.0,2.0
7.544769763946533,1268,1.0,30.0,2.0
7.554314851760864,871,1.0,30.0,2.0
7.564239025115967,1709,1.0,30.0,2.0
7.575230598449707,1313,1.0,30.0,2.0
7.584781646728516,1392,1.0,30.0,2.0
7.594327926635742,1307,1.0,30.0,2.0
7.605210065841675,1310,1.0,30.0,2.0
7.614285230636597,1326,1.0,30.0,2.0
7.624769926071167,1429,1.0,30.0,2.0
7.6349146366119385,1297,1.0,30.0,2.0
7.644414901733398,1279,1.0,30.0,2.0
7.65431547164917,1502,1.0,30.0,2.0
7.664989471435547,1230,1.0,30.0,2.0
7.675115346908569,1317,1.0,30.0,2.0
7.68515419960022,1401,1.0,30.0,2.0
7.694685220718384,1298,1.0,30.0,2.0
7.7042975425720215,1296,1.0,30.0,2.0
7.715167760848999,1298,1.0,30.0,2.0
7.724185228347778,1218,1.0,30.0,2.0
7.734221935272217,1307,1.0,30.0,2.0
7.744630336761475,1264,1.0,30.0,2.0
7.75439977645874,1285,1.0,30.0,2.0
7.764205694198608,1207,1.0,30.0,2.0
7.774376392364502,1170,1.0,30.0,2.0
7.784313917160034,989,1.0,30.0,2.0
7.7952187061309814,1203,1.0,30.0,2.0
7.804352283477783,1088,1.0,30.0,2.0
7.814352750778198,1340,1.0,30.0,2.0
7.824326038360596,990,1.0,30.0,2.0
7.83435845375061,1040,1.0,30.0,2.0
7.845118045806885,1071,1.0,30.0,2.0
7.846113204956055,1309,1.0,30.0,2.0
7.85991358757019,970,1.0,30.0,2.0
7.875132322311401,1350,1.0,30.0,2.0
7.88474702835083,678,1.0,30.0,2.0
7.8951661586761475,1595,1.0,30.0,2.0
7.9047088623046875,794,1.0,30.0,2.0
7.914425611495972,1398,1.0,30.0,2.0
7.924238204956055,405,1.0,30.0,2.0
7.934610366821289,1228,1.0,30.0,2.0
7.944559335708618,1717,1.0,30.0,2.0
7.955307960510254,1475,1.0,30.0,2.0
7.964573621749878,1986,1.0,30.0,2.0
7.9749791622161865,1584,1.0,30.0,2.0
7.9849748611450195,837,1.0,30.0,2.0
7.994861364364624,1389,1.0,30.0,2.0
8.005091667175293,1040,1.0,30.0,2.0
8.014907360076904,1110,1.0,30.0,2.0
8.025081872940063,1328,1.0,30.0,2.0
8.034988403320312,1042,1.0,30.0,2.0
8.044839859008789,1156,1.0,30.0,2.0
8.05474066734314,1616,1.0,30.0,2.0
8.064821243286133,1303,1.0,30.0,2.0
8.074823141098022,1187,1.0,30.0,2.0
8.085111856460571,674,1.0,30.0,2.0
8.095109462738037,1264,1.0,30.0,2.0
8.10506272315979,867,1.0,30.0,2.0
8.114408731460571,1123,1.0,30.0,2.0
8.124653339385986,775,1.0,30.0,2.0
8.1343252658844,995,1.0,30.0,2.0
8.144333839416504,1847,1.0,30.0,2.0
8.154136419296265,759,1.0,30.0,2.0
8.164809942245483,2094,1.0,30.0,2.0
8.174484491348267,1251,1.0,30.0,2.0
8.184629917144775,803,1.0,30.0,2.0
8.194780111312866,1215,1.0,30.0,2.0
8.204753637313843,750,1.0,30.0,2.0
8.21472692489624,456,1.0,30.0,2.0
8.224688291549683,1681,1.0,30.0,2.0
8.235111713409424,830,1.0,30.0,2.0
8.244731426239014,2157,1.0,30.0,2.0
8.254306077957153,1154,1.0,30.0,2.0
8.264556884765625,663,1.0,30.0,2.0
8.274456262588501,1290,1.0,30.0,2.0
8.284430742263794,594,1.0,30.0,2.0
8.294800519943237,895,1.0,30.0,2.0
8.304965496063232,714,1.0,30.0,2.0
8.314288139343262,809,1.0,30.0,2.0
8.324384450912476,2288,1.0,30.0,2.0
8.334356546401978,922,1.0,30.0,2.0
8.340266704559326,2337,1.0,30.0,2.0
8.35437297821045,949,1.0,30.0,2.0
8.364368677139282,2255,1.0,30.0,2.0
8.374372482299805,917,1.0,30.0,2.0
8.384349822998047,2266,1.0,30.0,2.0
8.395369529724121,1351,1.0,30.0,2.0
8.404375076293945,2238,1.0,30.0,2.0
8.415351152420044,1231,1.0,30.0,2.0
8.425359964370728,2266,1.0,30.0,2.0
8.435385704040527,1386,1.0,30.0,2.0
8.444381952285767,2320,1.0,30.0,2.0
8.454393863677979,1315,1.0,30.0,2.0
8.464382648468018,2320,1.0,30.0,2.0
8.475366592407227,1067,1.0,30.0,2.0
8.485355854034424,2358,1.0,30.0,2.0
8.494383811950684,1216,1.0,30.0,2.0
8.50438117980957,1245,1.0,30.0,2.0
8.514355659484863,1086,1.0,30.0,2.0
8.524635314941406,2269,1.0,30.0,2.0
8.534751176834106,1230,1.0,30.0,2.0
8.541642189025879,2247,1.0,30.0,2.0
8.554366111755371,1029,1.0,30.0,2.0
8.55788254737854,2224,1.0,30.0,2.0
8.574800729751587,1200,1.0,30.0,2.0
8.585378646850586,2255,1.0,30.0,2.0
8.594383001327515,1059,1.0,30.0,2.0
8.604381799697876,2273,1.0,30.0,2.0
8.614355564117432,995,1.0,30.0,2.0
8.624387264251709,2256,1.0,30.0,2.0
8.63437795639038,1119,1.0,30.0,2.0
8.645392894744873,1789,1.0,30.0,2.0
8.6543869972229,1055,1.0,30.0,2.0
8.664385795593262,1306,1.0,30.0,2.0
8.674355506896973,977,1.0,30.0,2.0
8.684383153915405,1328,1.0,30.0,2.0
8.694393634796143,938,1.0,30.0,2.0
8.70436429977417,887,1.0,30.0,2.0
8.714327096939087,866,1.0,30.0,2.0
8.723437070846558,838,1.0,30.0,2.0
8.734336853027344,870,1.0,30.0,2.0
8.74450421333313,683,1.0,30.0,2.0
8.747138977050781,763,1.0,30.0,2.0
8.75810170173645,493,1.0,30.0,2.0
8.775492429733276,1342,1.0,30.0,2.0
8.785517692565918,1267,1.0,30.0,2.0
8.7945556640625,1434,1.0,30.0,2.0
8.804515838623047,2172,1.0,30.0,2.0
8.81549620628357,1627,1.0,30.0,2.0
8.825392484664917,1651,1.0,30.0,2.0
8.83535385131836,1369,1.0,30.0,2.0
8.844401836395264,1078,1.0,30.0,2.0
8.854394912719727,1267,1.0,30.0,2.0
8.864382028579712,890,1.0,30.0,2.0
8.875360488891602,1252,1.0,30.0,2.0
8.884402513504028,2032,1.0,30.0,2.0
8.894382953643799,1040,1.0,30.0,2.0
8.904401302337646,2066,1.0,30.0,2.0
8.905399322509766,848,1.0,30.0,2.0
8.924402236938477,1602,1.0,30.0,2.0
8.934401750564575,1104,1.0,30.0,2.0
8.944381952285767,1343,1.0,30.0,2.0
8.954459428787231,919,1.0,30.0,2.0
8.958274126052856,1150,1.0,30.0,2.0
8.974386215209961,1125,1.0,30.0,2.0
8.984669208526611,1440,1.0,30.0,2.0
8.990239143371582,962,1.0,30.0,2.0
9.00535774230957,2000,1.0,30.0,2.0
9.015355110168457,1065,1.0,30.0,2.0
9.024402618408203,1069,1.0,30.0,2.0
9.034392356872559,1147,1.0,30.0,2.0
9.04438328742981,954,1.0,30.0,2.0
9.055371284484863,1148,1.0,30.0,2.0
9.064361095428467,875,1.0,30.0,2.0
9.074355602264404,1216,1.0,30.0,2.0
9.084925413131714,805,1.0,30.0,2.0
9.094400882720947,1193,1.0,30.0,2.0
9.095398664474487,688,1.0,30.0,2.0
9.115370273590088,1180,1.0,30.0,2.0
9.124357461929321,657,1.0,30.0,2.0
9.134399175643921,1077,1.0,30.0,2.0
9.135398864746094,709,1.0,30.0,2.0
9.154533863067627,1387,1.0,30.0,2.0
9.15776515007019,690,1.0,30.0,2.0
9.173693180084229,1425,1.0,30.0,2.0
9.182586431503296,697,1.0,30.0,2.0
9.191106081008911,1552,1.0,30.0,2.0
9.202186107635498,640,1.0,30.0,2.0
9.214378356933594,1581,1.0,30.0,2.0
9.224355936050415,607,1.0,30.0,2.0
9.234405755996704,1631,1.0,30.0,2.0
9.235404968261719,585,1.0,30.0,2.0
9.254401922225952,1739,1.0,30.0,2.0
9.255399942398071,592,1.0,30.0,2.0
9.274402141571045,1404,1.0,30.0,2.0
9.275400400161743,626,1.0,30.0,2.0
9.294400930404663,1721,1.0,30.0,2.0
9.295398950576782,254,1.0,30.0,2.0
9.314384698867798,1645,1.0,30.0,2.0
9.315382957458496,439,1.0,30.0,2.0
9.33437991142273,1682,1.0,30.0,2.0
9.33537769317627,547,1.0,30.0,2.0
9.35440182685852,1670,1.0,30.0,2.0
9.355401754379272,573,1.0,30.0,2.0
9.374937057495117,1535,1.0,30.0,2.0
9.377781391143799,423,1.0,30.0,2.0
9.391944408416748,1263,1.0,30.0,2.0
9.39997148513794,127,1.0,30.0,2.0
9.40770936012268,1014,1.0,30.0,2.0
9.417725801467896,114,1.0,30.0,2.0
9.434379577636719,1197,1.0,30.0,2.0
9.435377597808838,134,1.0,30.0,2.0
9.454405069351196,1248,1.0,30.0,2.0
9.455402851104736,501,1.0,30.0,2.0
9.474401950836182,1344,1.0,30.0,2.0
9.475399732589722,579,1.0,30.0,2.0
9.494402408599854,1401,1.0,30.0,2.0
9.495398998260498,601,1.0,30.0,2.0
9.51437497138977,1452,1.0,30.0,2.0
9.515373229980469,500,1.0,30.0,2.0
9.534401893615723,1509,1.0,30.0,2.0
9.535400152206421,641,1.0,30.0,2.0
9.554392576217651,1321,1.0,30.0,2.0
9.555390119552612,564,1.0,30.0,2.0
9.574402093887329,1120,1.0,30.0,2.0
9.575400352478027,370,1.0,30.0,2.0
9.595158815383911,1344,1.0,30.0,2.0
9.599791526794434,33,1.0,30.0,2.0
9.614805698394775,1280,1.0,30.0,2.0
9.6240975856781,435,1.0,30.0,2.0
9.634406566619873,1317,1.0,30.0,2.0
9.643445253372192,365,1.0,30.0,2.0
9.653446435928345,1316,1.0,30.0,2.0
9.663445949554443,336,1.0,30.0,2.0
9.674405336380005,1307,1.0,30.0,2.0
9.675403356552124,310,1.0,30.0,2.0
9.694377183914185,1272,1.0,30.0,2.0
9.695375680923462,236,1.0,30.0,2.0
9.714399576187134,1227,1.0,30.0,2.0
9.715397596359253,12,1.0,30.0,2.0
9.734403610229492,1127,1.0,30.0,2.0
9.73540186882019,0,1.0,30.0,2.0
9.754375457763672,1103,1.0,30.0,2.0
9.755373477935791,0,1.0,30.0,2.0
9.765394687652588,954,1.0,30.0,2.0
9.775394678115845,283,1.0,30.0,2.0
9.794375896453857,1251,1.0,30.0,2.0
9.795373916625977,119,1.0,30.0,2.0
9.81486177444458,1114,1.0,30.0,2.0
9.823674201965332,235,1.0,30.0,2.0
9.832686185836792,923,1.0,30.0,2.0
9.840012073516846,187,1.0,30.0,2.0
9.849081754684448,921,1.0,30.0,2.0
9.857694149017334,169,1.0,30.0,2.0
9.868947505950928,915,1.0,30.0,2.0
9.878954648971558,0,1.0,30.0,2.0
9.888955354690552,822,1.0,30.0,2.0
9.898955583572388,171,1.0,30.0,2.0
9.908955574035645,837,1.0,30.0,2.0
9.918955326080322,145,1.0,30.0,2.0
9.928955554962158,715,1.0,30.0,2.0
9.944127082824707,180,1.0,30.0,2.0
9.95413064956665,770,1.0,30.0,2.0
9.964130640029907,163,1.0,30.0,2.0
9.974133014678955,829,1.0,30.0,2.0
9.984130620956421,80,1.0,30.0,2.0
9.994130611419678,657,1.0,30.0,2.0
10.004130601882935,89,1.0,30.0,2.0
10.014136791229248,658,1.0,30.0,2.0
10.02467656135559,83,1.0,30.0,2.0
10.033506631851196,850,1.0,30.0,2.0
10.042980670928955,0,1.0,30.0,2.0
10.051005840301514,862,1.0,30.0,2.0
10.057809829711914,144,1.0,30.0,2.0
10.073270320892334,931,1.0,30.0,2.0
10.083356857299805,164,1.0,30.0,2.0
10.094411849975586,1390,1.0,30.0,2.0
10.095412492752075,2243,1.0,30.0,2.0
10.114396810531616,1357,1.0,30.0,2.0
10.115394830703735,563,1.0,30.0,2.0
10.135444641113281,1531,1.0,30.0,2.0
10.136441469192505,576,1.0,30.0,2.0
10.154544591903687,1695,1.0,30.0,2.0
10.155543804168701,616,1.0,30.0,2.0
10.174560308456421,1456,1.0,30.0,2.0
10.175559520721436,635,1.0,30.0,2.0
10.194475412368774,1239,1.0,30.0,2.0
10.204156875610352,581,1.0,30.0,2.0
10.214361429214478,1210,1.0,30.0,2.0
10.215370655059814,538,1.0,30.0,2.0
10.234516143798828,1013,1.0,30.0,2.0
10.240304470062256,421,1.0,30.0,2.0
10.254447221755981,1036,1.0,30.0,2.0
10.256569385528564,343,1.0,30.0,2.0
10.274301528930664,1018,1.0,30.0,2.0
10.284321308135986,168,1.0,30.0,2.0
10.294456243515015,1002,1.0,30.0,2.0
10.295454025268555,176,1.0,30.0,2.0
10.31440281867981,1023,1.0,30.0,2.0
10.315400838851929,185,1.0,30.0,2.0
10.334401607513428,1094,1.0,30.0,2.0
10.335399627685547,192,1.0,30.0,2.0
10.354381799697876,1082,1.0,30.0,2.0
10.355379819869995,272,1.0,30.0,2.0
10.374401092529297,1023,1.0,30.0,2.0
10.375399112701416,247,1.0,30.0,2.0
10.394418001174927,1049,1.0,30.0,2.0
10.395416259765625,275,1.0,30.0,2.0
10.414444923400879,1071,1.0,30.0,2.0
10.41544246673584,174,1.0,30.0,2.0
10.434418439865112,1077,1.0,30.0,2.0
10.435416460037231,0,1.0,30.0,2.0
10.454606294631958,1040,1.0,30.0,2.0
10.460226058959961,10,1.0,30.0,2.0
10.474254131317139,1067,1.0,30.0,2.0
10.482261419296265,0,1.0,30.0,2.0
10.489880084991455,1049,1.0,30.0,2.0
10.499891519546509,0,1.0,30.0,2.0
10.514376163482666,1023,1.0,30.0,2.0
10.515373945236206,166,1.0,30.0,2.0
10.52538514137268,977,1.0,30.0,2.0
10.535406589508057,119,1.0,30.0,2.0
10.545382738113403,903,1.0,30.0,2.0
10.555384159088135,142,1.0,30.0,2.0
10.565383434295654,874,1.0,30.0,2.0
10.57538390159607,0,1.0,30.0,2.0
10.58538269996643,911,1.0,30.0,2.0
10.595383882522583,0,1.0,30.0,2.0
10.60541582107544,1259,1.0,30.0,2.0
10.621444463729858,0,1.0,30.0,2.0
10.634147644042969,1619,1.0,30.0,2.0
10.64417552947998,141,1.0,30.0,2.0
10.654173374176025,1459,1.0,30.0,2.0
10.655956268310547,0,1.0,30.0,2.0
10.67424488067627,1466,1.0,30.0,2.0
10.679410696029663,0,1.0,30.0,2.0
10.690896987915039,1565,1.0,30.0,2.0
10.704366207122803,2005,1.0,30.0,2.0
10.714917182922363,1535,1.0,30.0,2.0
10.7239248752594,2218,1.0,30.0,2.0
10.734002351760864,1335,1.0,30.0,2.0
10.735001564025879,521,1.0,30.0,2.0
10.74501371383667,1311,1.0,30.0,2.0
10.75501275062561,557,1.0,30.0,2.0
10.765012502670288,1200,1.0,30.0,2.0
10.775012493133545,546,1.0,30.0,2.0
10.785012245178223,1170,1.0,30.0,2.0
10.79501223564148,588,1.0,30.0,2.0
10.805014371871948,1184,1.0,30.0,2.0
10.815012216567993,592,1.0,30.0,2.0
10.825022220611572,1310,1.0,30.0,2.0
10.835012197494507,543,1.0,30.0,2.0
10.845012664794922,1310,1.0,30.0,2.0
10.855013847351074,603,1.0,30.0,2.0
10.86503005027771,1318,1.0,30.0,2.0
10.88425326347351,532,1.0,30.0,2.0
10.891202211380005,1295,1.0,30.0,2.0
10.89921259880066,699,1.0,30.0,2.0
10.906455039978027,1296,1.0,30.0,2.0
10.924477577209473,2117,1.0,30.0,2.0
10.934379577636719,1041,1.0,30.0,2.0
10.944377183914185,1744,1.0,30.0,2.0
10.945375442504883,688,1.0,30.0,2.0
10.95538330078125,1751,1.0,30.0,2.0
10.974416255950928,1520,1.0,30.0,2.0
10.975415706634521,2215,1.0,30.0,2.0
10.994105100631714,1248,1.0,30.0,2.0
11.004164934158325,687,1.0,30.0,2.0
11.014111518859863,1296,1.0,30.0,2.0
11.024108648300171,2180,1.0,30.0,2.0
11.034108877182007,1471,1.0,30.0,2.0
11.044108390808105,2288,1.0,30.0,2.0
11.05410885810852,1381,1.0,30.0,2.0
11.064114570617676,2227,1.0,30.0,2.0
11.074109077453613,1278,1.0,30.0,2.0
11.084111452102661,2176,1.0,30.0,2.0
11.094414710998535,1193,1.0,30.0,2.0
11.10393762588501,2125,1.0,30.0,2.0
11.111425638198853,1282,1.0,30.0,2.0
11.123800992965698,2128,1.0,30.0,2.0
11.128389596939087,1271,1.0,30.0,2.0
11.139985799789429,2177,1.0,30.0,2.0
11.148025274276733,1251,1.0,30.0,2.0
11.15716028213501,2041,1.0,30.0,2.0
11.167169570922852,1328,1.0,30.0,2.0
11.177170038223267,2101,1.0,30.0,2.0
11.187169075012207,1294,1.0,30.0,2.0
11.197173595428467,2000,1.0,30.0,2.0
11.207172393798828,1342,1.0,30.0,2.0
11.217169761657715,2002,1.0,30.0,2.0
11.22717022895813,1310,1.0,30.0,2.0
11.23716926574707,1998,1.0,30.0,2.0
11.247169494628906,1251,1.0,30.0,2.0
11.2571702003479,1994,1.0,30.0,2.0
11.267183065414429,1295,1.0,30.0,2.0
11.277169227600098,2039,1.0,30.0,2.0
11.287174463272095,1217,1.0,30.0,2.0
11.297169208526611,1967,1.0,30.0,2.0
11.314123630523682,1257,1.0,30.0,2.0
11.32404899597168,1943,1.0,30.0,2.0
11.332056522369385,1165,1.0,30.0,2.0
11.344099521636963,1905,1.0,30.0,2.0
11.35210394859314,1200,1.0,30.0,2.0
11.357429265975952,1886,1.0,30.0,2.0
11.367445945739746,1179,1.0,30.0,2.0
11.377442121505737,1924,1.0,30.0,2.0
11.387442111968994,1116,1.0,30.0,2.0
11.397453784942627,1886,1.0,30.0,2.0
11.407442092895508,1042,1.0,30.0,2.0
11.417479753494263,1890,1.0,30.0,2.0
11.427442073822021,439,1.0,30.0,2.0
11.437443256378174,1750,1.0,30.0,2.0
11.447442054748535,746,1.0,30.0,2.0
11.457442045211792,1870,1.0,30.0,2.0
11.467442989349365,725,1.0,30.0,2.0
11.477443218231201,1794,1.0,30.0,2.0
11.487442016601562,735,1.0,30.0,2.0
11.502621412277222,1780,1.0,30.0,2.0
11.504893064498901,670,1.0,30.0,2.0
11.524292707443237,1957,1.0,30.0,2.0
11.53320598602295,832,1.0,30.0,2.0
11.541166543960571,1699,1.0,30.0,2.0
11.54917287826538,813,1.0,30.0,2.0
11.556717872619629,1667,1.0,30.0,2.0
11.573859691619873,735,1.0,30.0,2.0
11.574857473373413,1691,1.0,30.0,2.0
11.584867238998413,861,1.0,30.0,2.0
11.594869375228882,1930,1.0,30.0,2.0
11.604866743087769,1150,1.0,30.0,2.0
11.614866733551025,1770,1.0,30.0,2.0
11.624866724014282,1728,1.0,30.0,2.0
11.641214609146118,1513,1.0,30.0,2.0
11.651218891143799,849,1.0,30.0,2.0
11.661218643188477,1143,1.0,30.0,2.0
11.671218872070312,827,1.0,30.0,2.0
11.684154272079468,1626,1.0,30.0,2.0
11.694166421890259,867,1.0,30.0,2.0
11.704166889190674,1712,1.0,30.0,2.0
11.714166402816772,851,1.0,30.0,2.0
11.724166870117188,1757,1.0,30.0,2.0
11.734331369400024,912,1.0,30.0,2.0
11.7433443069458,1805,1.0,30.0,2.0
11.75078797340393,954,1.0,30.0,2.0
11.757737636566162,1616,1.0,30.0,2.0
11.773305892944336,1226,1.0,30.0,2.0
11.781320571899414,1451,1.0,30.0,2.0
11.78936219215393,963,1.0,30.0,2.0
11.800333499908447,1104,1.0,30.0,2.0
11.810333251953125,706,1.0,30.0,2.0
11.82035756111145,1351,1.0,30.0,2.0
11.830334663391113,423,1.0,30.0,2.0
11.840333700180054,1455,1.0,30.0,2.0
11.850333213806152,857,1.0,30.0,2.0
11.860333442687988,1392,1.0,30.0,2.0
11.870333194732666,399,1.0,30.0,2.0
11.880333423614502,1232,1.0,30.0,2.0
11.890461206436157,738,1.0,30.0,2.0
11.902895450592041,1179,1.0,30.0,2.0
11.912914752960205,752,1.0,30.0,2.0
11.922898054122925,1202,1.0,30.0,2.0
11.932896852493286,768,1.0,30.0,2.0
11.943283319473267,1309,1.0,30.0,2.0
11.954042434692383,870,1.0,30.0,2.0
11.964159488677979,1195,1.0,30.0,2.0
11.973894596099854,226,1.0,30.0,2.0
11.982900619506836,1241,1.0,30.0,2.0
11.989585161209106,926,1.0,30.0,2.0
12.00412917137146,1270,1.0,30.0,2.0
12.014141082763672,767,1.0,30.0,2.0
12.024156332015991,1338,1.0,30.0,2.0
12.034140825271606,800,1.0,30.0,2.0
12.044138431549072,1363,1.0,30.0,2.0
12.054152965545654,737,1.0,30.0,2.0
12.05562686920166,1353,1.0,30.0,2.0
12.065672397613525,747,1.0,30.0,2.0
12.075640678405762,1297,1.0,30.0,2.0
12.085641145706177,724,1.0,30.0,2.0
12.095641851425171,1343,1.0,30.0,2.0
12.105640649795532,867,1.0,30.0,2.0
12.115641117095947,1308,1.0,30.0,2.0
12.125641822814941,714,1.0,30.0,2.0
12.135642051696777,1274,1.0,30.0,2.0
12.14564061164856,788,1.0,30.0,2.0
12.164260387420654,1254,1.0,30.0,2.0
12.174096822738647,896,1.0,30.0,2.0
12.182101249694824,1109,1.0,30.0,2.0
12.190536975860596,977,1.0,30.0,2.0
12.19854998588562,1174,1.0,30.0,2.0
12.207276344299316,1644,1.0,30.0,2.0
12.224120378494263,1058,1.0,30.0,2.0
12.233866214752197,574,1.0,30.0,2.0
12.243871688842773,918,1.0,30.0,2.0
12.2538743019104,2097,1.0,30.0,2.0
12.264123678207397,934,1.0,30.0,2.0
12.265121936798096,793,1.0,30.0,2.0
12.2751305103302,896,1.0,30.0,2.0
12.285130262374878,910,1.0,30.0,2.0
12.302053451538086,822,1.0,30.0,2.0
12.312065362930298,1671,1.0,30.0,2.0
12.32206654548645,921,1.0,30.0,2.0
12.332065343856812,855,1.0,30.0,2.0
12.342065572738647,864,1.0,30.0,2.0
12.352065324783325,1367,1.0,30.0,2.0
12.362066507339478,576,1.0,30.0,2.0
12.373544454574585,1084,1.0,30.0,2.0
12.384318828582764,1039,1.0,30.0,2.0
12.391632556915283,1479,1.0,30.0,2.0
12.399653673171997,1159,1.0,30.0,2.0
12.406679391860962,1280,1.0,30.0,2.0
12.422847270965576,979,1.0,30.0,2.0
12.43285346031189,1088,1.0,30.0,2.0
12.444144487380981,768,1.0,30.0,2.0
12.454156398773193,1753,1.0,30.0,2.0
12.464156866073608,624,1.0,30.0,2.0
12.474156618118286,1131,1.0,30.0,2.0
12.484157085418701,708,1.0,30.0,2.0
12.49417519569397,1168,1.0,30.0,2.0
12.504157066345215,627,1.0,30.0,2.0
12.514155864715576,1200,1.0,30.0,2.0
12.52415680885315,575,1.0,30.0,2.0
12.534157752990723,1202,1.0,30.0,2.0
12.544156789779663,449,1.0,30.0,2.0
12.554157018661499,961,1.0,30.0,2.0
12.564152956008911,531,1.0,30.0,2.0
12.574161291122437,1062,1.0,30.0,2.0
12.584257364273071,459,1.0,30.0,2.0
12.594280481338501,989,1.0,30.0,2.0
12.6015625,597,1.0,30.0,2.0
12.606600046157837,1051,1.0,30.0,2.0
12.624114990234375,534,1.0,30.0,2.0
12.632124423980713,975,1.0,30.0,2.0
12.640188217163086,487,1.0,30.0,2.0
12.651178121566772,987,1.0,30.0,2.0
12.662518739700317,523,1.0,30.0,2.0
12.673604488372803,921,1.0,30.0,2.0
12.679197549819946,459,1.0,30.0,2.0
12.689201593399048,894,1.0,30.0,2.0
12.699201345443726,475,1.0,30.0,2.0
12.709201574325562,893,1.0,30.0,2.0
12.71920132637024,464,1.0,30.0,2.0
12.729201793670654,911,1.0,30.0,2.0
12.73920226097107,541,1.0,30.0,2.0
12.749201536178589,967,1.0,30.0,2.0
12.759201288223267,583,1.0,30.0,2.0
12.769201517105103,894,1.0,30.0,2.0
12.77920150756836,497,1.0,30.0,2.0
12.789202451705933,855,1.0,30.0,2.0
12.801636457443237,429,1.0,30.0,2.0
12.80970573425293,944,1.0,30.0,2.0
12.822041988372803,413,1.0,30.0,2.0
12.833174467086792,894,1.0,30.0,2.0
12.838637351989746,432,1.0,30.0,2.0
12.84663987159729,969,1.0,30.0,2.0
12.85715103149414,247,1.0,30.0,2.0
12.867169857025146,738,1.0,30.0,2.0
12.877167224884033,357,1.0,30.0,2.0
12.887166023254395,767,1.0,30.0,2.0
12.897288084030151,360,1.0,30.0,2.0
12.908276081085205,735,1.0,30.0,2.0
12.91825532913208,336,1.0,30.0,2.0
12.928256511688232,646,1.0,30.0,2.0
12.938255548477173,337,1.0,30.0,2.0
12.94825530052185,688,1.0,30.0,2.0
12.964118719100952,316,1.0,30.0,2.0
12.97415280342102,710,1.0,30.0,2.0
12.984130620956421,352,1.0,30.0,2.0
12.99412727355957,813,1.0,30.0,2.0
13.004127025604248,386,1.0,30.0,2.0
13.014277935028076,816,1.0,30.0,2.0
13.023720979690552,377,1.0,30.0,2.0
13.030998945236206,589,1.0,30.0,2.0
13.04095721244812,320,1.0,30.0,2.0
13.04896879196167,469,1.0,30.0,2.0
13.05638313293457,30,1.0,30.0,2.0
13.07243537902832,401,1.0,30.0,2.0
13.083407878875732,44,1.0,30.0,2.0
13.093408107757568,337,1.0,30.0,2.0
13.103410243988037,239,1.0,30.0,2.0
13.113409280776978,506,1.0,30.0,2.0
13.123684167861938,249,1.0,30.0,2.0
13.125677108764648,407,1.0,30.0,2.0
13.135686874389648,175,1.0,30.0,2.0
13.145686626434326,413,1.0,30.0,2.0
13.155686616897583,94,1.0,30.0,2.0
13.165798425674438,344,1.0,30.0,2.0
13.176782131195068,300,1.0,30.0,2.0
13.19287109375,2170,1.0,30.0,2.0
13.202874898910522,0,1.0,30.0,2.0
13.212876319885254,835,1.0,30.0,2.0
13.223325967788696,0,1.0,30.0,2.0
13.23415207862854,919,1.0,30.0,2.0
13.240269899368286,0,1.0,30.0,2.0
13.248279333114624,2155,1.0,30.0,2.0
13.264089107513428,0,1.0,30.0,2.0
13.273599863052368,2150,1.0,30.0,2.0
13.283609628677368,0,1.0,30.0,2.0
13.294106483459473,1907,1.0,30.0,2.0
13.304185390472412,268,1.0,30.0,2.0
13.314126253128052,2032,1.0,30.0,2.0
13.324199438095093,0,1.0,30.0,2.0
13.334128379821777,2225,1.0,30.0,2.0
13.34411096572876,0,1.0,30.0,2.0
13.354159116744995,2055,1.0,30.0,2.0
13.364121437072754,186,1.0,30.0,2.0
13.374115705490112,371,1.0,30.0,2.0
13.384110927581787,62,1.0,30.0,2.0
13.39412546157837,237,1.0,30.0,2.0
13.40413761138916,69,1.0,30.0,2.0
13.414114236831665,428,1.0,30.0,2.0
13.424114227294922,944,1.0,30.0,2.0
13.434227228164673,0,1.0,30.0,2.0
13.438412427902222,0,1.0,30.0,2.0
13.453350067138672,247,1.0,30.0,2.0
13.463974952697754,308,1.0,30.0,2.0
13.472626686096191,138,1.0,30.0,2.0
13.480641603469849,390,1.0,30.0,2.0
13.48988676071167,96,1.0,30.0,2.0
13.497923135757446,395,1.0,30.0,2.0
13.514143943786621,97,1.0,30.0,2.0
13.524154901504517,368,1.0,30.0,2.0
13.534152269363403,88,1.0,30.0,2.0
13.544156074523926,330,1.0,30.0,2.0
13.554154872894287,864,1.0,30.0,2.0
13.564165115356445,272,1.0,30.0,2.0
13.5741548538208,128,1.0,30.0,2.0
13.584156274795532,151,1.0,30.0,2.0
13.594156503677368,150,1.0,30.0,2.0
13.597736358642578,59,1.0,30.0,2.0
13.609677076339722,205,1.0,30.0,2.0
13.624143838882446,48,1.0,30.0,2.0
13.634156465530396,208,1.0,30.0,2.0
13.644257068634033,0,1.0,30.0,2.0
13.653862476348877,231,1.0,30.0,2.0
13.660857677459717,0,1.0,30.0,2.0
13.674078941345215,189,1.0,30.0,2.0
13.682111501693726,0,1.0,30.0,2.0
13.689286708831787,186,1.0,30.0,2.0
13.702521562576294,35,1.0,30.0,2.0
13.705450057983398,245,1.0,30.0,2.0
13.715453863143921,0,1.0,30.0,2.0
13.725454092025757,191,1.0,30.0,2.0
13.735454320907593,22,1.0,30.0,2.0
13.745465755462646,212,1.0,30.0,2.0
13.755454540252686,64,1.0,30.0,2.0
13.765454053878784,2366,1.0,30.0,2.0
13.775454044342041,0,1.0,30.0,2.0
13.785454034805298,2229,1.0,30.0,2.0
13.795454025268555,17,1.0,30.0,2.0
13.805454015731812,1088,1.0,30.0,2.0
13.815455198287964,5,1.0,30.0,2.0
13.825482606887817,876,1.0,30.0,2.0
13.838420629501343,0,1.0,30.0,2.0
13.84663438796997,773,1.0,30.0,2.0
13.863982439041138,29,1.0,30.0,2.0
13.8741934299469,656,1.0,30.0,2.0
13.883198261260986,0,1.0,30.0,2.0
13.889526128768921,566,1.0,30.0,2.0
13.899558067321777,0,1.0,30.0,2.0
13.905906200408936,528,1.0,30.0,2.0
13.916837453842163,132,1.0,30.0,2.0
13.92683744430542,337,1.0,30.0,2.0
13.936837434768677,269,1.0,30.0,2.0
13.946837425231934,477,1.0,30.0,2.0
13.95683741569519,333,1.0,30.0,2.0
13.966837406158447,432,1.0,30.0,2.0
13.976837396621704,160,1.0,30.0,2.0
13.994118452072144,309,1.0,30.0,2.0
14.004131078720093,80,1.0,30.0,2.0
14.01413083076477,256,1.0,30.0,2.0
14.024130582809448,48,1.0,30.0,2.0
14.034286975860596,240,1.0,30.0,2.0
14.034286975860596,23,1.0,30.0,2.0
14.049210548400879,233,1.0,30.0,2.0
14.064105033874512,32,1.0,30.0,2.0
14.074144840240479,200,1.0,30.0,2.0
14.082157611846924,0,1.0,30.0,2.0
14.089557409286499,190,1.0,30.0,2.0
14.097602605819702,0,1.0,30.0,2.0
14.10667610168457,160,1.0,30.0,2.0
14.116683959960938,0,1.0,30.0,2.0
14.126683950424194,112,1.0,30.0,2.0
14.136696577072144,0,1.0,30.0,2.0
14.14668893814087,64,1.0,30.0,2.0
14.156683921813965,0,1.0,30.0,2.0
14.166683912277222,72,1.0,30.0,2.0
14.177778959274292,0,1.0,30.0,2.0
14.188423871994019,51,1.0,30.0,2.0
14.199403524398804,0,1.0,30.0,2.0
14.213831424713135,50,1.0,30.0,2.0
14.216861486434937,0,1.0,30.0,2.0
14.226865530014038,44,1.0,30.0,2.0
14.236864805221558,27,1.0,30.0,2.0
14.246864557266235,38,1.0,30.0,2.0
14.259300947189331,5,1.0,30.0,2.0
14.273411273956299,8,1.0,30.0,2.0
14.2814199924469,0,1.0,30.0,2.0
14.2891366481781,0,1.0,30.0,2.0
14.297193050384521,0,1.0,30.0,2.0
14.306870460510254,0,1.0,30.0,2.0
14.316885948181152,0,1.0,30.0,2.0
14.32688593864441,19,1.0,30.0,2.0
14.336885929107666,0,1.0,30.0,2.0
14.346885919570923,0,1.0,30.0,2.0
14.357916593551636,0,1.0,30.0,2.0
14.374184131622314,11,1.0,30.0,2.0
14.37561583518982,0,1.0,30.0,2.0
14.385631561279297,101,1.0,30.0,2.0
14.397859811782837,0,1.0,30.0,2.0
14.407987594604492,0,1.0,30.0,2.0
14.418007135391235,0,1.0,30.0,2.0
14.429575681686401,27,1.0,30.0,2.0
14.439582109451294,0,1.0,30.0,2.0
14.44958209991455,30,1.0,30.0,2.0
14.459582090377808,352,1.0,30.0,2.0
14.473329544067383,0,1.0,30.0,2.0
14.484290838241577,26,1.0,30.0,2.0
14.48937463760376,471,1.0,30.0,2.0
14.498352766036987,4095,1.0,30.0,2.0
14.513802289962769,12,1.0,30.0,2.0
14.523366928100586,0,1.0,30.0,2.0
14.534144639968872,11,1.0,30.0,2.0
14.544156789779663,0,1.0,30.0,2.0
14.554152965545654,39,1.0,30.0,2.0
14.564156770706177,262,1.0,30.0,2.0
14.574156284332275,1335,1.0,30.0,2.0
14.58415675163269,4095,1.0,30.0,2.0
14.594155550003052,417,1.0,30.0,2.0
14.604156970977783,0,1.0,30.0,2.0
14.614161729812622,0,1.0,30.0,2.0
14.624153137207031,0,1.0,30.0,2.0
14.6341552734375,0,1.0,30.0,2.0
14.644156694412231,0,1.0,30.0,2.0
14.654156684875488,0,1.0,30.0,2.0
14.664156675338745,0,1.0,30.0,2.0
14.674156665802002,1456,1.0,30.0,2.0
14.684289693832397,0,1.0,30.0,2.0
14.694230318069458,1502,1.0,30.0,2.0
14.703240394592285,0,1.0,30.0,2.0
14.713667392730713,0,1.0,30.0,2.0
14.724016427993774,0,1.0,30.0,2.0
14.72972297668457,0,1.0,30.0,2.0
14.738343715667725,0,1.0,30.0,2.0
14.747181177139282,0,1.0,30.0,2.0
14.764273166656494,0,1.0,30.0,2.0
14.774275302886963,0,1.0,30.0,2.0
14.78427505493164,0,1.0,30.0,2.0
14.794275283813477,2750,1.0,30.0,2.0
14.804275035858154,0,1.0,30.0,2.0
14.81427526473999,2761,1.0,30.0,2.0
14.824275016784668,0,1.0,30.0,2.0
14.834275245666504,2319,1.0,30.0,2.0
14.844274997711182,0,1.0,30.0,2.0
14.854275465011597,2486,1.0,30.0,2.0
14.864274978637695,0,1.0,30.0,2.0
14.874275207519531,0,1.0,30.0,2.0
14.884274959564209,0,1.0,30.0,2.0
14.89432954788208,2577,1.0,30.0,2.0
14.896793365478516,0,1.0,30.0,2.0
14.91399335861206,0,1.0,30.0,2.0
14.923925876617432,0,1.0,30.0,2.0
14.931960105895996,0,1.0,30.0,2.0
14.939383268356323,0,1.0,30.0,2.0
14.947410821914673,1893,1.0,30.0,2.0
14.956445455551147,0,1.0,30.0,2.0
14.966452360153198,2175,1.0,30.0,2.0
14.976453304290771,0,1.0,30.0,2.0
14.986452341079712,2402,1.0,30.0,2.0
14.996452569961548,0,1.0,30.0,2.0
15.006452322006226,0,1.0,30.0,2.0
15.016454696655273,0,1.0,30.0,2.0
15.02645230293274,0,1.0,30.0,2.0
15.036452293395996,0,1.0,30.0,2.0
15.046452045440674,1904,1.0,30.0,2.0
15.05645227432251,0,1.0,30.0,2.0
15.066453456878662,2169,1.0,30.0,2.0
15.076453447341919,0,1.0,30.0,2.0
15.08645248413086,2322,1.0,30.0,2.0
15.09994649887085,0,1.0,30.0,2.0
15.113431930541992,2487,1.0,30.0,2.0
15.123507499694824,0,1.0,30.0,2.0
15.13251280784607,772,1.0,30.0,2.0
15.139288663864136,451,1.0,30.0,2.0
15.14731764793396,1136,1.0,30.0,2.0
15.16129755973816,388,1.0,30.0,2.0
15.17231273651123,1462,1.0,30.0,2.0
15.184224605560303,629,1.0,30.0,2.0
15.194234371185303,1777,1.0,30.0,2.0
15.20423674583435,702,1.0,30.0,2.0
15.214231967926025,2640,1.0,30.0,2.0
15.224234342575073,301,1.0,30.0,2.0
15.234432697296143,2314,1.0,30.0,2.0
15.24123501777649,976,1.0,30.0,2.0
15.251259326934814,4095,1.0,30.0,2.0
15.261239528656006,810,1.0,30.0,2.0
15.274118423461914,2655,1.0,30.0,2.0
15.284131288528442,563,1.0,30.0,2.0
15.29413104057312,2006,1.0,30.0,2.0
15.304130792617798,229,1.0,30.0,2.0
15.314213752746582,1891,1.0,30.0,2.0
15.323702096939087,146,1.0,30.0,2.0
15.331177949905396,2006,1.0,30.0,2.0
15.340401887893677,75,1.0,30.0,2.0
15.348412990570068,2176,1.0,30.0,2.0
15.364043474197388,0,1.0,30.0,2.0
15.373098373413086,2245,1.0,30.0,2.0
15.383105039596558,0,1.0,30.0,2.0
15.38876485824585,1965,1.0,30.0,2.0
15.398772954940796,0,1.0,30.0,2.0
15.408772945404053,2395,1.0,30.0,2.0
15.418774127960205,6,1.0,30.0,2.0
15.428772926330566,2174,1.0,30.0,2.0
15.44414234161377,0,1.0,30.0,2.0
15.454152345657349,1346,1.0,30.0,2.0
15.464154958724976,0,1.0,30.0,2.0
15.474169254302979,1136,1.0,30.0,2.0
15.484160661697388,0,1.0,30.0,2.0
15.494154930114746,1033,1.0,30.0,2.0
15.504166841506958,0,1.0,30.0,2.0
15.514167785644531,1086,1.0,30.0,2.0
15.524318218231201,0,1.0,30.0,2.0
15.533535718917847,1910,1.0,30.0,2.0
15.541600942611694,0,1.0,30.0,2.0
15.5496084690094,1455,1.0,30.0,2.0
15.557210922241211,0,1.0,30.0,2.0
15.57323670387268,1263,1.0,30.0,2.0
15.583280324935913,16,1.0,30.0,2.0
15.59324860572815,1162,1.0,30.0,2.0
15.603247880935669,7,1.0,30.0,2.0
15.605403423309326,1265,1.0,30.0,2.0
15.61541199684143,0,1.0,30.0,2.0
15.62541127204895,1202,1.0,30.0,2.0
15.636523962020874,14,1.0,30.0,2.0
15.646671056747437,1104,1.0,30.0,2.0
15.656700849533081,0,1.0,30.0,2.0
15.666669607162476,1168,1.0,30.0,2.0
15.676669836044312,0,1.0,30.0,2.0
15.68666958808899,1093,1.0,30.0,2.0
15.698834896087646,0,1.0,30.0,2.0
15.708850383758545,994,1.0,30.0,2.0
15.71885061264038,0,1.0,30.0,2.0
15.73235011100769,1017,1.0,30.0,2.0
15.744107007980347,0,1.0,30.0,2.0
15.7463960647583,935,1.0,30.0,2.0
15.763605117797852,0,1.0,30.0,2.0
15.772531509399414,925,1.0,30.0,2.0
15.780549049377441,0,1.0,30.0,2.0
15.789600610733032,910,1.0,30.0,2.0
15.79960823059082,0,1.0,30.0,2.0
15.80960726737976,878,1.0,30.0,2.0
15.819608449935913,0,1.0,30.0,2.0
15.829607248306274,821,1.0,30.0,2.0
15.83960747718811,0,1.0,30.0,2.0
15.849607229232788,797,1.0,30.0,2.0
15.86411738395691,0,1.0,30.0,2.0
15.87412977218628,886,1.0,30.0,2.0
15.88412594795227,0,1.0,30.0,2.0
15.894130229949951,848,1.0,30.0,2.0
15.904129981994629,0,1.0,30.0,2.0
15.91433048248291,880,1.0,30.0,2.0
15.91532826423645,0,1.0,30.0,2.0
15.925344944000244,843,1.0,30.0,2.0
15.935342788696289,0,1.0,30.0,2.0
15.953314065933228,805,1.0,30.0,2.0
15.957547187805176,0,1.0,30.0,2.0
15.973589181900024,738,1.0,30.0,2.0
15.981597661972046,0,1.0,30.0,2.0
15.990798473358154,753,1.0,30.0,2.0
16.004348754882812,0,1.0,30.0,2.0
16.005345344543457,549,1.0,30.0,2.0
16.01535987854004,0,1.0,30.0,2.0
16.025360345840454,367,1.0,30.0,2.0
16.0394389629364,0,1.0,30.0,2.0
16.049455165863037,547,1.0,30.0,2.0
16.05945634841919,65,1.0,30.0,2.0
16.069945812225342,526,1.0,30.0,2.0
16.080936193466187,0,1.0,30.0,2.0
16.090932607650757,451,1.0,30.0,2.0
16.10093379020691,0,1.0,30.0,2.0
16.111242055892944,464,1.0,30.0,2.0
16.124142169952393,0,1.0,30.0,2.0
16.134334087371826,404,1.0,30.0,2.0
16.143839359283447,0,1.0,30.0,2.0
16.14548659324646,490,1.0,30.0,2.0
16.16383934020996,0,1.0,30.0,2.0
16.17350172996521,495,1.0,30.0,2.0
16.18260908126831,0,1.0,30.0,2.0
16.194122552871704,375,1.0,30.0,2.0
16.202131986618042,0,1.0,30.0,2.0
16.20657515525818,535,1.0,30.0,2.0
16.21658992767334,0,1.0,30.0,2.0
16.226590633392334,411,1.0,30.0,2.0
16.23659038543701,0,1.0,30.0,2.0
16.24659013748169,289,1.0,30.0,2.0
16.262813329696655,0,1.0,30.0,2.0
16.273763179779053,414,1.0,30.0,2.0
16.282337427139282,0,1.0,30.0,2.0
16.293762683868408,415,1.0,30.0,2.0
16.304312467575073,0,1.0,30.0,2.0
16.31431555747986,475,1.0,30.0,2.0
16.324315786361694,0,1.0,30.0,2.0
16.334316730499268,448,1.0,30.0,2.0
16.334316730499268,0,1.0,30.0,2.0
16.34553575515747,405,1.0,30.0,2.0
16.355547189712524,0,1.0,30.0,2.0
16.36554503440857,457,1.0,30.0,2.0
16.384225845336914,0,1.0,30.0,2.0
16.3898503780365,373,1.0,30.0,2.0
16.404426336288452,0,1.0,30.0,2.0
16.413818836212158,421,1.0,30.0,2.0
16.42303991317749,0,1.0,30.0,2.0
16.433050394058228,352,1.0,30.0,2.0
16.443053722381592,0,1.0,30.0,2.0
16.453052282333374,315,1.0,30.0,2.0
16.463053703308105,0,1.0,30.0,2.0
16.473053216934204,274,1.0,30.0,2.0
16.483063459396362,0,1.0,30.0,2.0
16.49305295944214,574,1.0,30.0,2.0
16.504340887069702,0,1.0,30.0,2.0
16.51436686515808,336,1.0,30.0,2.0
16.52459216117859,0,1.0,30.0,2.0
16.52888822555542,415,1.0,30.0,2.0
16.53892230987549,0,1.0,30.0,2.0
16.548922538757324,336,1.0,30.0,2.0
16.56411838531494,0,1.0,30.0,2.0
16.57413339614868,333,1.0,30.0,2.0
16.584140300750732,0,1.0,30.0,2.0
16.59428858757019,2109,1.0,30.0,2.0
16.603525400161743,0,1.0,30.0,2.0
16.607048273086548,363,1.0,30.0,2.0
16.624238967895508,0,1.0,30.0,2.0
16.632243633270264,362,1.0,30.0,2.0
16.638702630996704,0,1.0,30.0,2.0
16.648735761642456,358,1.0,30.0,2.0
16.658735036849976,0,1.0,30.0,2.0
16.67188858985901,486,1.0,30.0,2.0
16.681915044784546,0,1.0,30.0,2.0
16.691895723342896,2107,1.0,30.0,2.0
16.70315432548523,0,1.0,30.0,2.0
16.713160753250122,2166,1.0,30.0,2.0
16.72409725189209,401,1.0,30.0,2.0
16.734107732772827,1993,1.0,30.0,2.0
16.74410390853882,0,1.0,30.0,2.0
16.754111528396606,1663,1.0,30.0,2.0
16.76410436630249,0,1.0,30.0,2.0
16.774104595184326,1170,1.0,30.0,2.0
16.78426694869995,0,1.0,30.0,2.0
16.7922203540802,927,1.0,30.0,2.0
16.80359697341919,76,1.0,30.0,2.0
16.813938856124878,1550,1.0,30.0,2.0
16.82330346107483,34,1.0,30.0,2.0
16.831437587738037,1622,1.0,30.0,2.0
16.838670015335083,0,1.0,30.0,2.0
16.854521989822388,1936,1.0,30.0,2.0
16.856415271759033,0,1.0,30.0,2.0
16.866430282592773,448,1.0,30.0,2.0
16.876429796218872,0,1.0,30.0,2.0
16.88642954826355,2127,1.0,30.0,2.0
16.89643383026123,0,1.0,30.0,2.0
16.908991813659668,2047,1.0,30.0,2.0
16.920118808746338,0,1.0,30.0,2.0
16.934118509292603,803,1.0,30.0,2.0
16.944129705429077,0,1.0,30.0,2.0
16.954137086868286,2254,1.0,30.0,2.0
16.96415090560913,0,1.0,30.0,2.0
16.974130868911743,2272,1.0,30.0,2.0
16.98414134979248,6,1.0,30.0,2.0
16.99412727355957,2101,1.0,30.0,2.0
17.004130363464355,18,1.0,30.0,2.0
17.015292167663574,2224,1.0,30.0,2.0
17.024197816848755,29,1.0,30.0,2.0
17.031784057617188,2240,1.0,30.0,2.0
17.039823055267334,30,1.0,30.0,2.0
17.05441451072693,2288,1.0,30.0,2.0
17.06379771232605,29,1.0,30.0,2.0
17.072832345962524,2321,1.0,30.0,2.0
17.082834720611572,16,1.0,30.0,2.0
17.092837810516357,2176,1.0,30.0,2.0
17.102834224700928,0,1.0,30.0,2.0
17.112834453582764,2138,1.0,30.0,2.0
17.12283706665039,0,1.0,30.0,2.0
17.132835865020752,2151,1.0,30.0,2.0
17.14436388015747,0,1.0,30.0,2.0
17.15437078475952,2113,1.0,30.0,2.0
17.15437078475952,0,1.0,30.0,2.0
17.174370050430298,2098,1.0,30.0,2.0
17.174370050430298,0,1.0,30.0,2.0
17.185609340667725,2141,1.0,30.0,2.0
17.195650339126587,0,1.0,30.0,2.0
17.205650806427002,2012,1.0,30.0,2.0
17.223538637161255,0,1.0,30.0,2.0
17.228904962539673,2091,1.0,30.0,2.0
17.23962426185608,0,1.0,30.0,2.0
17.25473380088806,2045,1.0,30.0,2.0
17.262733221054077,0,1.0,30.0,2.0
17.270732879638672,2013,1.0,30.0,2.0
17.27879762649536,0,1.0,30.0,2.0
17.28984570503235,2038,1.0,30.0,2.0
17.303521633148193,0,1.0,30.0,2.0
17.306653022766113,2112,1.0,30.0,2.0
17.316655158996582,0,1.0,30.0,2.0
17.326656103134155,2263,1.0,30.0,2.0
17.336655139923096,0,1.0,30.0,2.0
17.34665608406067,2109,1.0,30.0,2.0
17.35665512084961,0,1.0,30.0,2.0
17.366655826568604,1937,1.0,30.0,2.0
17.37665605545044,0,1.0,30.0,2.0
17.386655807495117,1911,1.0,30.0,2.0
17.396656274795532,0,1.0,30.0,2.0
17.40665626525879,1898,1.0,30.0,2.0
17.41665530204773,0,1.0,30.0,2.0
17.434289693832397,1907,1.0,30.0,2.0
17.441405773162842,0,1.0,30.0,2.0
17.454548120498657,890,1.0,30.0,2.0
17.45659565925598,0,1.0,30.0,2.0
17.471878051757812,377,1.0,30.0,2.0
17.481889963150024,0,1.0,30.0,2.0
17.494146585464478,2234,1.0,30.0,2.0
17.50412368774414,0,1.0,30.0,2.0
17.50511908531189,2431,1.0,30.0,2.0
17.515127897262573,0,1.0,30.0,2.0
17.525127172470093,2161,1.0,30.0,2.0
17.53620147705078,0,1.0,30.0,2.0
17.54621696472168,1873,1.0,30.0,2.0
17.556214332580566,0,1.0,30.0,2.0
17.56621241569519,1722,1.0,30.0,2.0
17.576212644577026,0,1.0,30.0,2.0
17.5862135887146,1883,1.0,30.0,2.0
17.59625267982483,0,1.0,30.0,2.0
17.607709646224976,1776,1.0,30.0,2.0
17.618576049804688,0,1.0,30.0,2.0
17.628575801849365,1712,1.0,30.0,2.0
17.63859748840332,0,1.0,30.0,2.0
17.65427303314209,1815,1.0,30.0,2.0
17.66170358657837,0,1.0,30.0,2.0
17.674140453338623,1831,1.0,30.0,2.0
17.682151317596436,0,1.0,30.0,2.0
17.688785314559937,1803,1.0,30.0,2.0
17.704134225845337,0,1.0,30.0,2.0
17.70517110824585,1678,1.0,30.0,2.0
17.715172052383423,0,1.0,30.0,2.0
17.725172996520996,1642,1.0,30.0,2.0
17.735180616378784,0,1.0,30.0,2.0
17.74520254135132,1658,1.0,30.0,2.0
17.7551908493042,0,1.0,30.0,2.0
17.76520824432373,2019,1.0,30.0,2.0
17.77517318725586,0,1.0,30.0,2.0
17.785173177719116,1702,1.0,30.0,2.0
17.795182466506958,0,1.0,30.0,2.0
17.805171966552734,1568,1.0,30.0,2.0
17.82153558731079,0,1.0,30.0,2.0
17.834117889404297,1543,1.0,30.0,2.0
17.844130992889404,0,1.0,30.0,2.0
17.854130744934082,1520,1.0,30.0,2.0
17.864296197891235,0,1.0,30.0,2.0
17.873998880386353,1586,1.0,30.0,2.0
17.877147912979126,0,1.0,30.0,2.0
17.889570474624634,1507,1.0,30.0,2.0
17.90415620803833,0,1.0,30.0,2.0
17.914078950881958,1578,1.0,30.0,2.0
17.924144506454468,1815,1.0,30.0,2.0
17.934153079986572,1590,1.0,30.0,2.0
17.944156646728516,2608,1.0,30.0,2.0
17.954155921936035,1544,1.0,30.0,2.0
17.96415901184082,2323,1.0,30.0,2.0
17.974156618118286,1499,1.0,30.0,2.0
17.984153270721436,1365,1.0,30.0,2.0
17.9941565990448,1520,1.0,30.0,2.0
18.004156827926636,1666,1.0,30.0,2.0
18.014156579971313,1358,1.0,30.0,2.0
18.02415680885315,1840,1.0,30.0,2.0
18.034156560897827,1478,1.0,30.0,2.0
18.0356285572052,1395,1.0,30.0,2.0
18.045644760131836,1376,1.0,30.0,2.0
18.05563712120056,1755,1.0,30.0,2.0
18.073689222335815,1467,1.0,30.0,2.0
18.095930576324463,2032,1.0,30.0,2.0
18.095930576324463,1417,1.0,30.0,2.0
18.10411548614502,2545,1.0,30.0,2.0
18.11429452896118,1486,1.0,30.0,2.0
18.123331785202026,667,1.0,30.0,2.0
18.133617877960205,1441,1.0,30.0,2.0
18.134633779525757,0,1.0,30.0,2.0
18.14471125602722,1393,1.0,30.0,2.0
18.15568208694458,0,1.0,30.0,2.0
18.165714740753174,1382,1.0,30.0,2.0
18.177054405212402,2251,1.0,30.0,2.0
18.18791174888611,1358,1.0,30.0,2.0
18.19791078567505,2543,1.0,30.0,2.0
18.207911491394043,1319,1.0,30.0,2.0
18.217910528182983,2265,1.0,30.0,2.0
18.227921962738037,1314,1.0,30.0,2.0
18.237912893295288,611,1.0,30.0,2.0
18.254154443740845,1406,1.0,30.0,2.0
18.264166831970215,720,1.0,30.0,2.0
18.275336503982544,1434,1.0,30.0,2.0
18.28408145904541,1216,1.0,30.0,2.0
18.288413047790527,1255,1.0,30.0,2.0
18.30406665802002,245,1.0,30.0,2.0
18.305632829666138,1082,1.0,30.0,2.0
18.321863889694214,2283,1.0,30.0,2.0
18.333112478256226,1685,1.0,30.0,2.0
18.33962845802307,300,1.0,30.0,2.0
18.3540940284729,1475,1.0,30.0,2.0
18.3550922870636,2423,1.0,30.0,2.0
18.36510467529297,1434,1.0,30.0,2.0
18.37510323524475,0,1.0,30.0,2.0
18.385143041610718,1110,1.0,30.0,2.0
18.395116806030273,0,1.0,30.0,2.0
18.405102729797363,1399,1.0,30.0,2.0
18.415104866027832,0,1.0,30.0,2.0
18.425134897232056,1509,1.0,30.0,2.0
18.43513321876526,0,1.0,30.0,2.0
18.445103406906128,1314,1.0,30.0,2.0
18.455103635787964,0,1.0,30.0,2.0
18.465102434158325,1105,1.0,30.0,2.0
18.47510290145874,0,1.0,30.0,2.0
18.49387550354004,1473,1.0,30.0,2.0
18.504015922546387,560,1.0,30.0,2.0
18.507163763046265,1391,1.0,30.0,2.0
18.523831844329834,0,1.0,30.0,2.0
18.532840251922607,1382,1.0,30.0,2.0
18.53848934173584,76,1.0,30.0,2.0
18.55405306816101,1342,1.0,30.0,2.0
18.55505132675171,0,1.0,30.0,2.0
18.56506323814392,1376,1.0,30.0,2.0
18.575064659118652,0,1.0,30.0,2.0
18.585062265396118,1366,1.0,30.0,2.0
18.59506320953369,0,1.0,30.0,2.0
18.60506319999695,1357,1.0,30.0,2.0
18.615062475204468,0,1.0,30.0,2.0
18.62539577484131,1351,1.0,30.0,2.0
18.63635015487671,0,1.0,30.0,2.0
18.646349668502808,1328,1.0,30.0,2.0
18.656350135803223,0,1.0,30.0,2.0
18.66635012626648,1266,1.0,30.0,2.0
18.67635178565979,0,1.0,30.0,2.0
18.686350107192993,1261,1.0,30.0,2.0
18.70424723625183,0,1.0,30.0,2.0
18.71052885055542,1244,1.0,30.0,2.0
18.723143577575684,0,1.0,30.0,2.0
18.731151819229126,1279,1.0,30.0,2.0
18.73863196372986,0,1.0,30.0,2.0
18.754104614257812,1250,1.0,30.0,2.0
18.755123615264893,0,1.0,30.0,2.0
18.765125274658203,1232,1.0,30.0,2.0
18.77512526512146,0,1.0,30.0,2.0
18.78512454032898,1216,1.0,30.0,2.0
18.795127630233765,0,1.0,30.0,2.0
18.80512547492981,1201,1.0,30.0,2.0
18.815125465393066,0,1.0,30.0,2.0
18.825125217437744,1194,1.0,30.0,2.0
18.83512544631958,0,1.0,30.0,2.0
18.852170944213867,1167,1.0,30.0,2.0
18.86219024658203,0,1.0,30.0,2.0
18.87217664718628,1155,1.0,30.0,2.0
18.883315801620483,455,1.0,30.0,2.0
18.894399642944336,1139,1.0,30.0,2.0
18.894399642944336,0,1.0,30.0,2.0
18.91444706916809,1276,1.0,30.0,2.0
18.923344612121582,0,1.0,30.0,2.0
18.92945146560669,1424,1.0,30.0,2.0
18.937420129776,0,1.0,30.0,2.0
18.953949451446533,1122,1.0,30.0,2.0
18.96422839164734,0,1.0,30.0,2.0
18.973296642303467,1767,1.0,30.0,2.0
18.98332452774048,0,1.0,30.0,2.0
18.99363923072815,1808,1.0,30.0,2.0
18.994622468948364,0,1.0,30.0,2.0
19.004634380340576,1691,1.0,30.0,2.0
19.01463532447815,0,1.0,30.0,2.0
19.024636030197144,1808,1.0,30.0,2.0
19.034634351730347,0,1.0,30.0,2.0
19.05414366722107,1575,1.0,30.0,2.0
19.06415581703186,494,1.0,30.0,2.0
19.07416296005249,1360,1.0,30.0,2.0
19.084156036376953,959,1.0,30.0,2.0
19.094152212142944,1264,1.0,30.0,2.0
19.104156017303467,0,1.0,30.0,2.0
19.114156246185303,979,1.0,30.0,2.0
19.124279975891113,965,1.0,30.0,2.0
19.13425350189209,1046,1.0,30.0,2.0
19.142836093902588,0,1.0,30.0,2.0
19.153873205184937,1104,1.0,30.0,2.0
19.162201404571533,0,1.0,30.0,2.0
19.171536207199097,1040,1.0,30.0,2.0
19.181546688079834,0,1.0,30.0,2.0
19.19154715538025,1017,1.0,30.0,2.0
19.203886032104492,0,1.0,30.0,2.0
19.204887628555298,986,1.0,30.0,2.0
19.21489977836609,0,1.0,30.0,2.0
19.2249014377594,1041,1.0,30.0,2.0
19.234899759292603,0,1.0,30.0,2.0
19.24703359603882,1022,1.0,30.0,2.0
19.25704860687256,0,1.0,30.0,2.0
19.26705026626587,926,1.0,30.0,2.0
19.277050256729126,0,1.0,30.0,2.0
19.287050008773804,941,1.0,30.0,2.0
19.297048807144165,0,1.0,30.0,2.0
19.307050466537476,927,1.0,30.0,2.0
19.31704878807068,0,1.0,30.0,2.0
19.33005690574646,912,1.0,30.0,2.0
19.344229221343994,0,1.0,30.0,2.0
19.35401439666748,912,1.0,30.0,2.0
19.362671375274658,2610,1.0,30.0,2.0
19.374139547348022,884,1.0,30.0,2.0
19.38214898109436,0,1.0,30.0,2.0
19.39018702507019,910,1.0,30.0,2.0
19.404141426086426,0,1.0,30.0,2.0
19.41415309906006,897,1.0,30.0,2.0
19.42414951324463,797,1.0,30.0,2.0
19.43415331840515,870,1.0,30.0,2.0
19.44417142868042,2480,1.0,30.0,2.0
19.454160451889038,874,1.0,30.0,2.0
19.464152574539185,0,1.0,30.0,2.0
19.474157094955444,843,1.0,30.0,2.0
19.48417592048645,0,1.0,30.0,2.0
19.494165182113647,849,1.0,30.0,2.0
19.504165172576904,2512,1.0,30.0,2.0
19.51416516304016,829,1.0,30.0,2.0
19.524165153503418,2634,1.0,30.0,2.0
19.53425431251526,848,1.0,30.0,2.0
19.543651580810547,2640,1.0,30.0,2.0
19.553807497024536,798,1.0,30.0,2.0
19.555911779403687,2557,1.0,30.0,2.0
19.571444511413574,807,1.0,30.0,2.0
19.57946014404297,2634,1.0,30.0,2.0
19.588286876678467,789,1.0,30.0,2.0
19.603864908218384,2559,1.0,30.0,2.0
19.60486388206482,777,1.0,30.0,2.0
19.614872932434082,2531,1.0,30.0,2.0
19.624871492385864,743,1.0,30.0,2.0
19.634872674942017,2512,1.0,30.0,2.0
19.644871711730957,746,1.0,30.0,2.0
19.65487027168274,2547,1.0,30.0,2.0
19.664870738983154,706,1.0,30.0,2.0
19.674869537353516,2219,1.0,30.0,2.0
19.68487000465393,912,1.0,30.0,2.0
19.694871187210083,2091,1.0,30.0,2.0
19.704870462417603,718,1.0,30.0,2.0
19.714869737625122,553,1.0,30.0,2.0
19.72486972808838,745,1.0,30.0,2.0
19.73487114906311,1808,1.0,30.0,2.0
19.754408836364746,753,1.0,30.0,2.0
19.75951337814331,1275,1.0,30.0,2.0
19.77414035797119,710,1.0,30.0,2.0
19.78215479850769,2270,1.0,30.0,2.0
19.787357568740845,690,1.0,30.0,2.0
19.803743362426758,2582,1.0,30.0,2.0
19.80477523803711,720,1.0,30.0,2.0
19.814778327941895,2222,1.0,30.0,2.0
19.824810028076172,666,1.0,30.0,2.0
19.834776401519775,2356,1.0,30.0,2.0
19.84477663040161,591,1.0,30.0,2.0
19.85477638244629,2241,1.0,30.0,2.0
19.87186360359192,455,1.0,30.0,2.0
19.8818678855896,2033,1.0,30.0,2.0
19.894142866134644,630,1.0,30.0,2.0
19.904154777526855,1363,1.0,30.0,2.0
19.914151191711426,643,1.0,30.0,2.0
19.92438793182373,1947,1.0,30.0,2.0
19.925405740737915,636,1.0,30.0,2.0
19.93542242050171,2015,1.0,30.0,2.0
19.94542121887207,592,1.0,30.0,2.0
19.955440521240234,1901,1.0,30.0,2.0
19.970462560653687,604,1.0,30.0,2.0
19.98377275466919,1648,1.0,30.0,2.0
19.98916506767273,1627,1.0,30.0,2.0
20.00368046760559,1904,1.0,30.0,2.0
20.013694763183594,573,1.0,30.0,2.0
20.022733211517334,0,1.0,30.0,2.0
20.03413200378418,1895,1.0,30.0,2.0
20.044144868850708,1503,1.0,30.0,2.0
20.05414080619812,1387,1.0,30.0,2.0
20.06414484977722,365,1.0,30.0,2.0
20.0741446018219,1185,1.0,30.0,2.0
20.084144592285156,2352,1.0,30.0,2.0
20.094143390655518,170,1.0,30.0,2.0
20.10415005683899,0,1.0,30.0,2.0
20.114192724227905,1853,1.0,30.0,2.0
20.12414312362671,1214,1.0,30.0,2.0
20.13414740562439,1390,1.0,30.0,2.0
20.14415168762207,1379,1.0,30.0,2.0
20.154157400131226,1489,1.0,30.0,2.0
20.16415524482727,1359,1.0,30.0,2.0
20.174322605133057,1681,1.0,30.0,2.0
20.183867692947388,1497,1.0,30.0,2.0
20.19075036048889,1476,1.0,30.0,2.0
20.20365047454834,1042,1.0,30.0,2.0
20.21433401107788,339,1.0,30.0,2.0
20.22249436378479,1654,1.0,30.0,2.0
20.234139680862427,1744,1.0,30.0,2.0
20.244152069091797,1712,1.0,30.0,2.0
20.254168272018433,1882,1.0,30.0,2.0
20.25468635559082,1680,1.0,30.0,2.0
20.26555848121643,1168,1.0,30.0,2.0
20.27555823326111,1516,1.0,30.0,2.0
20.286799907684326,1424,1.0,30.0,2.0
20.29680824279785,1478,1.0,30.0,2.0
20.306808471679688,1616,1.0,30.0,2.0
20.31680989265442,1338,1.0,30.0,2.0
20.327181100845337,2031,1.0,30.0,2.0
20.337183237075806,1506,1.0,30.0,2.0
20.354132175445557,1895,1.0,30.0,2.0
20.364144802093506,1482,1.0,30.0,2.0
20.37437415122986,1984,1.0,30.0,2.0
20.384783267974854,1520,1.0,30.0,2.0
20.388511896133423,1921,1.0,30.0,2.0
20.403928518295288,971,1.0,30.0,2.0
20.413745164871216,1895,1.0,30.0,2.0
20.424139261245728,389,1.0,30.0,2.0
20.432151317596436,1505,1.0,30.0,2.0
20.437302589416504,2559,1.0,30.0,2.0
20.45369052886963,1178,1.0,30.0,2.0
20.454721212387085,1493,1.0,30.0,2.0
20.464722394943237,1359,1.0,30.0,2.0
20.47475576400757,2413,1.0,30.0,2.0
20.484722137451172,1402,1.0,30.0,2.0
20.494755744934082,1987,1.0,30.0,2.0
20.504722356796265,1325,1.0,30.0,2.0
20.51472282409668,1426,1.0,30.0,2.0
20.524723529815674,1411,1.0,30.0,2.0
20.534722089767456,1366,1.0,30.0,2.0
20.54472541809082,1488,1.0,30.0,2.0
20.554735898971558,1379,1.0,30.0,2.0
20.564722299575806,1659,1.0,30.0,2.0
20.574723720550537,1237,1.0,30.0,2.0
20.58472228050232,1549,1.0,30.0,2.0
20.604433298110962,1616,1.0,30.0,2.0
20.610315322875977,1291,1.0,30.0,2.0
20.623659372329712,1551,1.0,30.0,2.0
20.631669521331787,1072,1.0,30.0,2.0
20.638198137283325,1390,1.0,30.0,2.0
20.65359663963318,857,1.0,30.0,2.0
20.6555917263031,1268,1.0,30.0,2.0
20.66560697555542,673,1.0,30.0,2.0
20.67560648918152,1355,1.0,30.0,2.0
20.69343090057373,1135,1.0,30.0,2.0
20.703439950942993,1328,1.0,30.0,2.0
20.71344566345215,1199,1.0,30.0,2.0
20.723445892333984,1301,1.0,30.0,2.0
20.733458518981934,1040,1.0,30.0,2.0
20.735453367233276,1285,1.0,30.0,2.0
20.745470762252808,736,1.0,30.0,2.0
20.755465507507324,1314,1.0,30.0,2.0
20.76546573638916,743,1.0,30.0,2.0
20.77546501159668,1466,1.0,30.0,2.0
20.785465240478516,711,1.0,30.0,2.0
20.795465230941772,1725,1.0,30.0,2.0
20.813802242279053,468,1.0,30.0,2.0
20.822522163391113,2345,1.0,30.0,2.0
20.830533027648926,464,1.0,30.0,2.0
20.837889671325684,1011,1.0,30.0,2.0
20.853808164596558,501,1.0,30.0,2.0
20.855671167373657,0,1.0,30.0,2.0
20.865705013275146,413,1.0,30.0,2.0
20.87568736076355,0,1.0,30.0,2.0
20.88568878173828,393,1.0,30.0,2.0
20.901960849761963,0,1.0,30.0,2.0
20.905442714691162,386,1.0,30.0,2.0
20.91546654701233,0,1.0,30.0,2.0
20.92544984817505,464,1.0,30.0,2.0
20.935451984405518,0,1.0,30.0,2.0
20.94544816017151,401,1.0,30.0,2.0
20.955448150634766,0,1.0,30.0,2.0
20.965446949005127,388,1.0,30.0,2.0
20.975462913513184,0,1.0,30.0,2.0
20.98681640625,400,1.0,30.0,2.0
20.996833562850952,0,1.0,30.0,2.0
21.00686240196228,250,1.0,30.0,2.0
21.023496627807617,0,1.0,30.0,2.0
21.034279584884644,336,1.0,30.0,2.0
21.03920602798462,0,1.0,30.0,2.0
21.05346179008484,348,1.0,30.0,2.0
21.06346821784973,0,1.0,30.0,2.0
21.071346759796143,366,1.0,30.0,2.0
21.08135747909546,0,1.0,30.0,2.0
21.091357469558716,368,1.0,30.0,2.0
21.101356506347656,0,1.0,30.0,2.0
21.111356258392334,312,1.0,30.0,2.0
21.121357679367065,0,1.0,30.0,2.0
21.131356239318848,324,1.0,30.0,2.0
21.141356468200684,0,1.0,30.0,2.0
21.15135622024536,992,1.0,30.0,2.0
21.161356449127197,400,1.0,30.0,2.0
21.174143314361572,1136,1.0,30.0,2.0
21.184160470962524,557,1.0,30.0,2.0
21.19415307044983,1099,1.0,30.0,2.0
21.204142808914185,411,1.0,30.0,2.0
21.214154720306396,991,1.0,30.0,2.0
21.224294424057007,333,1.0,30.0,2.0
21.225291967391968,962,1.0,30.0,2.0
21.2438383102417,177,1.0,30.0,2.0
21.25350308418274,880,1.0,30.0,2.0
21.26353144645691,0,1.0,30.0,2.0
21.271133184432983,716,1.0,30.0,2.0
21.279178142547607,0,1.0,30.0,2.0
21.28891372680664,537,1.0,30.0,2.0
21.303695678710938,0,1.0,30.0,2.0
21.3046932220459,341,1.0,30.0,2.0
21.314714908599854,0,1.0,30.0,2.0
21.324714422225952,434,1.0,30.0,2.0
21.334712266921997,0,1.0,30.0,2.0
21.344711303710938,649,1.0,30.0,2.0
21.354731798171997,0,1.0,30.0,2.0
21.364710807800293,511,1.0,30.0,2.0
21.37581181526184,0,1.0,30.0,2.0
21.385851621627808,500,1.0,30.0,2.0
21.395827293395996,4095,1.0,30.0,2.0
21.41201901435852,1563,1.0,30.0,2.0
21.422024488449097,4095,1.0,30.0,2.0
21.428115129470825,2115,1.0,30.0,2.0
21.44230890274048,4095,1.0,30.0,2.0
21.454301118850708,2160,1.0,30.0,2.0
21.461683988571167,4095,1.0,30.0,2.0
21.474239587783813,1966,1.0,30.0,2.0
21.481809377670288,4095,1.0,30.0,2.0
21.48993492126465,1975,1.0,30.0,2.0
21.50343942642212,4095,1.0,30.0,2.0
21.51340937614441,1974,1.0,30.0,2.0
21.522072553634644,4095,1.0,30.0,2.0
21.528759956359863,1833,1.0,30.0,2.0
21.54427933692932,4095,1.0,30.0,2.0
21.554205417633057,1977,1.0,30.0,2.0
21.559468507766724,4095,1.0,30.0,2.0
21.57419490814209,1827,1.0,30.0,2.0
21.582525491714478,4095,1.0,30.0,2.0
21.58947515487671,1897,1.0,30.0,2.0
21.60433316230774,4095,1.0,30.0,2.0
21.613219738006592,1869,1.0,30.0,2.0
21.6243097782135,4095,1.0,30.0,2.0
21.634387731552124,1791,1.0,30.0,2.0
21.644243478775024,4095,1.0,30.0,2.0
21.654220581054688,2032,1.0,30.0,2.0
21.661287784576416,4095,1.0,30.0,2.0
21.673662662506104,1737,1.0,30.0,2.0
21.684651136398315,4095,1.0,30.0,2.0
21.69044065475464,1899,1.0,30.0,2.0
21.70376992225647,4095,1.0,30.0,2.0
21.71302366256714,1926,1.0,30.0,2.0
21.72437596321106,4095,1.0,30.0,2.0
21.73431706428528,1858,1.0,30.0,2.0
21.744019269943237,4095,1.0,30.0,2.0
21.754090070724487,2064,1.0,30.0,2.0
21.764745473861694,4095,1.0,30.0,2.0
21.774471521377563,1790,1.0,30.0,2.0
21.782158613204956,4095,1.0,30.0,2.0
21.789877891540527,1990,1.0,30.0,2.0
21.804117679595947,4095,1.0,30.0,2.0
21.811873197555542,2256,1.0,30.0,2.0
21.824329614639282,4095,1.0,30.0,2.0
21.82958459854126,358,1.0,30.0,2.0
21.843892574310303,4095,1.0,30.0,2.0
21.854254961013794,368,1.0,30.0,2.0
21.856305837631226,4095,1.0,30.0,2.0
21.87288212776184,338,1.0,30.0,2.0
21.882301330566406,4095,1.0,30.0,2.0
21.88806390762329,269,1.0,30.0,2.0
21.903528928756714,2043,1.0,30.0,2.0
21.914177656173706,153,1.0,30.0,2.0
21.92195725440979,0,1.0,30.0,2.0
21.93427014350891,128,1.0,30.0,2.0
21.935039043426514,0,1.0,30.0,2.0
21.945050954818726,112,1.0,30.0,2.0
21.956661701202393,4095,1.0,30.0,2.0
21.967592000961304,662,1.0,30.0,2.0
21.981877088546753,4095,1.0,30.0,2.0
21.99189305305481,955,1.0,30.0,2.0
22.00436234474182,4095,1.0,30.0,2.0
22.01207995414734,1233,1.0,30.0,2.0
22.021385192871094,4095,1.0,30.0,2.0
22.03453516960144,1471,1.0,30.0,2.0
22.042782068252563,4095,1.0,30.0,2.0
22.05179214477539,1745,1.0,30.0,2.0
22.064197778701782,3760,1.0,30.0,2.0
22.073585271835327,735,1.0,30.0,2.0
22.083180904388428,0,1.0,30.0,2.0
22.094194889068604,1615,1.0,30.0,2.0
22.103744983673096,1397,1.0,30.0,2.0
22.113760948181152,2496,1.0,30.0,2.0
22.124239444732666,1471,1.0,30.0,2.0
22.129145622253418,2651,1.0,30.0,2.0
22.142547607421875,1497,1.0,30.0,2.0
22.15365695953369,2439,1.0,30.0,2.0
22.16451930999756,1648,1.0,30.0,2.0
22.174076080322266,239,1.0,30.0,2.0
22.180302619934082,1520,1.0,30.0,2.0
22.194202661514282,240,1.0,30.0,2.0
22.203591108322144,1439,1.0,30.0,2.0
22.212377548217773,134,1.0,30.0,2.0
22.223634004592896,1229,1.0,30.0,2.0
22.232401371002197,3050,1.0,30.0,2.0
22.243598222732544,951,1.0,30.0,2.0
22.25405240058899,3057,1.0,30.0,2.0
22.264297485351562,1191,1.0,30.0,2.0
22.274161100387573,3650,1.0,30.0,2.0
22.27949571609497,775,1.0,30.0,2.0
22.294317722320557,2945,1.0,30.0,2.0
22.30359649658203,48,1.0,30.0,2.0
22.314223051071167,2719,1.0,30.0,2.0
22.323267698287964,39,1.0,30.0,2.0
22.32971501350403,1575,1.0,30.0,2.0
22.34439706802368,429,1.0,30.0,2.0
22.353575944900513,1174,1.0,30.0,2.0
22.363775968551636,421,1.0,30.0,2.0
22.374083042144775,436,1.0,30.0,2.0
22.381585836410522,150,1.0,30.0,2.0
22.392327785491943,749,1.0,30.0,2.0
22.40458106994629,1115,1.0,30.0,2.0
22.41331171989441,2439,1.0,30.0,2.0
22.42424201965332,2105,1.0,30.0,2.0
22.43428063392639,38,1.0,30.0,2.0
22.444087743759155,1807,1.0,30.0,2.0
22.453843593597412,4095,1.0,30.0,2.0
22.46457815170288,1782,1.0,30.0,2.0
22.474285364151,4095,1.0,30.0,2.0
22.478089094161987,1863,1.0,30.0,2.0
22.494308471679688,75,1.0,30.0,2.0
22.505249738693237,1968,1.0,30.0,2.0
22.512863159179688,0,1.0,30.0,2.0
22.519882917404175,1941,1.0,30.0,2.0
22.534167051315308,0,1.0,30.0,2.0
22.544286727905273,2045,1.0,30.0,2.0
22.553503274917603,0,1.0,30.0,2.0
22.559520721435547,2041,1.0,30.0,2.0
22.57421112060547,0,1.0,30.0,2.0
22.580726623535156,2047,1.0,30.0,2.0
22.593352556228638,0,1.0,30.0,2.0
22.60367202758789,1344,1.0,30.0,2.0
22.609214782714844,0,1.0,30.0,2.0
22.62409234046936,435,1.0,30.0,2.0
22.62774682044983,0,1.0,30.0,2.0
22.644397974014282,1750,1.0,30.0,2.0
22.653494834899902,0,1.0,30.0,2.0
22.66234803199768,2354,1.0,30.0,2.0
22.673903465270996,0,1.0,30.0,2.0
22.67857551574707,1981,1.0,30.0,2.0
22.694004774093628,2645,1.0,30.0,2.0
22.703489065170288,1929,1.0,30.0,2.0
22.710673570632935,2807,1.0,30.0,2.0
22.72269344329834,1984,1.0,30.0,2.0
22.731625080108643,2852,1.0,30.0,2.0
22.737711668014526,1792,1.0,30.0,2.0
22.76311492919922,2448,1.0,30.0,2.0
22.764137983322144,1823,1.0,30.0,2.0
22.77383017539978,2589,1.0,30.0,2.0
22.779853343963623,1810,1.0,30.0,2.0
22.79393696784973,2352,1.0,30.0,2.0
22.803934574127197,1812,1.0,30.0,2.0
22.812124967575073,2775,1.0,30.0,2.0
22.823702812194824,1757,1.0,30.0,2.0
22.828898668289185,2832,1.0,30.0,2.0
22.84428310394287,1841,1.0,30.0,2.0
22.854567766189575,2753,1.0,30.0,2.0
22.864126920700073,2578,1.0,30.0,2.0
22.87393069267273,554,1.0,30.0,2.0
22.8802707195282,1933,1.0,30.0,2.0
22.893662214279175,1173,1.0,30.0,2.0
22.903462409973145,1405,1.0,30.0,2.0
22.91009497642517,0,1.0,30.0,2.0
22.923425436019897,1719,1.0,30.0,2.0
22.934194564819336,2394,1.0,30.0,2.0
22.940109729766846,1713,1.0,30.0,2.0
22.954389333724976,2124,1.0,30.0,2.0
22.964055061340332,1811,1.0,30.0,2.0
22.9744770526886,2360,1.0,30.0,2.0
22.981668710708618,1562,1.0,30.0,2.0
22.993617296218872,1425,1.0,30.0,2.0
23.004355669021606,884,1.0,30.0,2.0
23.012480974197388,1725,1.0,30.0,2.0
23.024284839630127,1723,1.0,30.0,2.0
23.033738374710083,2137,1.0,30.0,2.0
23.044395446777344,1616,1.0,30.0,2.0
23.05457901954651,2639,1.0,30.0,2.0
23.064284563064575,1641,1.0,30.0,2.0
23.07409691810608,2421,1.0,30.0,2.0
23.084521532058716,1675,1.0,30.0,2.0
23.09400463104248,2352,1.0,30.0,2.0
23.103843927383423,1686,1.0,30.0,2.0
23.11333990097046,2304,1.0,30.0,2.0
23.12335729598999,1721,1.0,30.0,2.0
23.126383781433105,2854,1.0,30.0,2.0
23.144464254379272,1615,1.0,30.0,2.0
23.154098510742188,2762,1.0,30.0,2.0
23.16417098045349,1616,1.0,30.0,2.0
23.17457675933838,2143,1.0,30.0,2.0
23.183000326156616,1638,1.0,30.0,2.0
23.194552183151245,2383,1.0,30.0,2.0
23.203539609909058,1609,1.0,30.0,2.0
23.20826554298401,2251,1.0,30.0,2.0
23.224003553390503,1573,1.0,30.0,2.0
23.22795605659485,1989,1.0,30.0,2.0
23.244408130645752,1094,1.0,30.0,2.0
23.25462770462036,1237,1.0,30.0,2.0
23.263361930847168,1257,1.0,30.0,2.0
23.27451181411743,800,1.0,30.0,2.0
23.281505584716797,1629,1.0,30.0,2.0
23.294304370880127,1143,1.0,30.0,2.0
23.303558111190796,114,1.0,30.0,2.0
23.31162667274475,2118,1.0,30.0,2.0
23.32380962371826,1520,1.0,30.0,2.0
23.33263397216797,1453,1.0,30.0,2.0
23.34407901763916,2141,1.0,30.0,2.0
23.35403060913086,2499,1.0,30.0,2.0
23.358211755752563,511,1.0,30.0,2.0
23.374261379241943,2679,1.0,30.0,2.0
23.383763551712036,1409,1.0,30.0,2.0
23.393543243408203,1441,1.0,30.0,2.0
23.403374195098877,1703,1.0,30.0,2.0
23.41260600090027,1415,1.0,30.0,2.0
23.424262285232544,1456,1.0,30.0,2.0
23.43082880973816,1186,1.0,30.0,2.0
23.44396710395813,1230,1.0,30.0,2.0
23.45305323600769,1776,1.0,30.0,2.0
23.461557388305664,879,1.0,30.0,2.0
23.47441053390503,705,1.0,30.0,2.0
23.48376750946045,709,1.0,30.0,2.0
23.49428129196167,1057,1.0,30.0,2.0
23.50360941886902,1344,1.0,30.0,2.0
23.51467990875244,885,1.0,30.0,2.0
23.524348497390747,1862,1.0,30.0,2.0
23.532294273376465,1214,1.0,30.0,2.0
23.54421353340149,835,1.0,30.0,2.0
23.554545164108276,759,1.0,30.0,2.0
23.564263820648193,848,1.0,30.0,2.0
23.574342966079712,1250,1.0,30.0,2.0
23.584758281707764,1076,1.0,30.0,2.0
23.593641996383667,1241,1.0,30.0,2.0
23.603442192077637,1908,1.0,30.0,2.0
23.614378929138184,1941,1.0,30.0,2.0
23.624223709106445,1520,1.0,30.0,2.0
23.626219272613525,1599,1.0,30.0,2.0
23.64445471763611,1594,1.0,30.0,2.0
23.65405511856079,1554,1.0,30.0,2.0
23.662525415420532,1590,1.0,30.0,2.0
23.67392373085022,1767,1.0,30.0,2.0
23.67492365837097,1545,1.0,30.0,2.0
23.693062782287598,2411,1.0,30.0,2.0
23.703402519226074,1316,1.0,30.0,2.0
23.71191668510437,1201,1.0,30.0,2.0
23.72403573989868,1296,1.0,30.0,2.0
23.727649450302124,1225,1.0,30.0,2.0
23.743743658065796,1141,1.0,30.0,2.0
23.75343632698059,1197,1.0,30.0,2.0
23.760945320129395,1138,1.0,30.0,2.0
23.773509979248047,1197,1.0,30.0,2.0
23.779918909072876,1154,1.0,30.0,2.0
23.794029712677002,443,1.0,30.0,2.0
23.803529024124146,903,1.0,30.0,2.0
23.8121440410614,1535,1.0,30.0,2.0
23.824180126190186,1347,1.0,30.0,2.0
23.831258058547974,958,1.0,30.0,2.0
23.84423327445984,908,1.0,30.0,2.0
23.85375213623047,719,1.0,30.0,2.0
23.86405658721924,757,1.0,30.0,2.0
23.873944759368896,833,1.0,30.0,2.0
23.88445281982422,212,1.0,30.0,2.0
23.89405846595764,1040,1.0,30.0,2.0
23.90434694290161,1078,1.0,30.0,2.0
23.912541389465332,1945,1.0,30.0,2.0
23.92355465888977,1003,1.0,30.0,2.0
23.929811000823975,876,1.0,30.0,2.0
23.944403409957886,1161,1.0,30.0,2.0
23.95394015312195,962,1.0,30.0,2.0
23.9644193649292,850,1.0,30.0,2.0
23.974321842193604,863,1.0,30.0,2.0
23.983786821365356,958,1.0,30.0,2.0
23.994139671325684,852,1.0,30.0,2.0
24.00333833694458,930,1.0,30.0,2.0
24.014458894729614,838,1.0,30.0,2.0
24.023967266082764,907,1.0,30.0,2.0
24.028622150421143,832,1.0,30.0,2.0
24.044107675552368,891,1.0,30.0,2.0
24.05425477027893,809,1.0,30.0,2.0
24.0623939037323,898,1.0,30.0,2.0
24.073739528656006,799,1.0,30.0,2.0
24.077845335006714,1035,1.0,30.0,2.0
24.093717575073242,822,1.0,30.0,2.0
24.104264974594116,548,1.0,30.0,2.0
24.114395141601562,843,1.0,30.0,2.0
24.123902082443237,1281,1.0,30.0,2.0
24.128408670425415,1178,1.0,30.0,2.0
24.14403533935547,1434,1.0,30.0,2.0
24.154290914535522,710,1.0,30.0,2.0
24.16025686264038,1383,1.0,30.0,2.0
24.17400074005127,720,1.0,30.0,2.0
24.175997257232666,1431,1.0,30.0,2.0
24.193310976028442,1066,1.0,30.0,2.0
24.204381704330444,1205,1.0,30.0,2.0
24.214014530181885,1072,1.0,30.0,2.0
24.223914861679077,1161,1.0,30.0,2.0
24.22969651222229,937,1.0,30.0,2.0
24.243990659713745,960,1.0,30.0,2.0
24.25359058380127,845,1.0,30.0,2.0
24.261985301971436,641,1.0,30.0,2.0
24.273834705352783,635,1.0,30.0,2.0
24.283511877059937,814,1.0,30.0,2.0
24.294166803359985,685,1.0,30.0,2.0
24.303874731063843,720,1.0,30.0,2.0
24.31443214416504,371,1.0,30.0,2.0
24.32371950149536,1275,1.0,30.0,2.0
24.328638792037964,767,1.0,30.0,2.0
24.343823671340942,720,1.0,30.0,2.0
24.354421615600586,1248,1.0,30.0,2.0
24.362938404083252,163,1.0,30.0,2.0
24.3748300075531,176,1.0,30.0,2.0
24.384275674819946,1319,1.0,30.0,2.0
24.390959978103638,479,1.0,30.0,2.0
24.403866291046143,240,1.0,30.0,2.0
24.414240837097168,0,1.0,30.0,2.0
24.42448878288269,621,1.0,30.0,2.0
24.430510759353638,244,1.0,30.0,2.0
24.444252967834473,1599,1.0,30.0,2.0
24.453662395477295,933,1.0,30.0,2.0
24.46122455596924,62,1.0,30.0,2.0
24.47419786453247,208,1.0,30.0,2.0
24.48409414291382,1123,1.0,30.0,2.0
24.49076557159424,418,1.0,30.0,2.0
24.503755807876587,210,1.0,30.0,2.0
24.51391339302063,0,1.0,30.0,2.0
24.521491765975952,708,1.0,30.0,2.0
24.53009819984436,528,1.0,30.0,2.0
24.54431438446045,1708,1.0,30.0,2.0
24.55365514755249,752,1.0,30.0,2.0
24.560981273651123,597,1.0,30.0,2.0
24.574588298797607,164,1.0,30.0,2.0
24.584144353866577,1153,1.0,30.0,2.0
24.591531991958618,554,1.0,30.0,2.0
24.604187726974487,573,1.0,30.0,2.0
24.613584995269775,647,1.0,30.0,2.0
24.623389959335327,214,1.0,30.0,2.0
24.628892421722412,171,1.0,30.0,2.0
24.63914918899536,1591,1.0,30.0,2.0
24.65402913093567,702,1.0,30.0,2.0
24.660614013671875,2370,1.0,30.0,2.0
24.674368381500244,80,1.0,30.0,2.0
24.683791399002075,1005,1.0,30.0,2.0
24.694566011428833,357,1.0,30.0,2.0
24.70478844642639,175,1.0,30.0,2.0
24.713292598724365,64,1.0,30.0,2.0
24.722131967544556,400,1.0,30.0,2.0
24.72968578338623,137,1.0,30.0,2.0
24.744271516799927,1360,1.0,30.0,2.0
24.754163026809692,646,1.0,30.0,2.0
24.7593674659729,2378,1.0,30.0,2.0
24.774308919906616,35,1.0,30.0,2.0
24.782389879226685,821,1.0,30.0,2.0
24.79390788078308,267,1.0,30.0,2.0
24.803913116455078,186,1.0,30.0,2.0
24.814247369766235,0,1.0,30.0,2.0
24.823629140853882,305,1.0,30.0,2.0
24.8285493850708,112,1.0,30.0,2.0
24.844255685806274,834,1.0,30.0,2.0
24.853458404541016,534,1.0,30.0,2.0
24.859185934066772,210,1.0,30.0,2.0
24.873647928237915,111,1.0,30.0,2.0
24.882183074951172,607,1.0,30.0,2.0
24.89122700691223,369,1.0,30.0,2.0
24.90466022491455,325,1.0,30.0,2.0
24.912946939468384,208,1.0,30.0,2.0
24.921833515167236,335,1.0,30.0,2.0
24.93038296699524,319,1.0,30.0,2.0
24.943803787231445,400,1.0,30.0,2.0
24.953895330429077,2359,1.0,30.0,2.0
24.958038806915283,1109,1.0,30.0,2.0
24.9679172039032,229,1.0,30.0,2.0
24.982033252716064,602,1.0,30.0,2.0
24.98976445198059,299,1.0,30.0,2.0
24.997456789016724,400,1.0,30.0,2.0
25.005701303482056,144,1.0,30.0,2.0
25.020424842834473,440,1.0,30.0,2.0
25.034332036972046,208,1.0,30.0,2.0
25.04351043701172,739,1.0,30.0,2.0
25.053858995437622,1610,1.0,30.0,2.0
25.062870740890503,85,1.0,30.0,2.0
25.070429801940918,0,1.0,30.0,2.0
25.081819772720337,632,1.0,30.0,2.0
25.08963680267334,505,1.0,30.0,2.0
25.10347318649292,253,1.0,30.0,2.0
25.112545251846313,403,1.0,30.0,2.0
25.123255729675293,350,1.0,30.0,2.0
25.127859830856323,804,1.0,30.0,2.0
25.143190622329712,298,1.0,30.0,2.0
25.153855562210083,976,1.0,30.0,2.0
25.160542011260986,265,1.0,30.0,2.0
25.17426562309265,746,1.0,30.0,2.0
25.181673049926758,336,1.0,30.0,2.0
25.1944739818573,2014,1.0,30.0,2.0
25.203999280929565,219,1.0,30.0,2.0
25.212284803390503,619,1.0,30.0,2.0
25.223785161972046,239,1.0,30.0,2.0
25.234423398971558,1334,1.0,30.0,2.0
25.243760585784912,241,1.0,30.0,2.0
25.253798961639404,1495,1.0,30.0,2.0
25.263760328292847,192,1.0,30.0,2.0
25.27384066581726,1197,1.0,30.0,2.0
25.281699657440186,362,1.0,30.0,2.0
25.290110111236572,1971,1.0,30.0,2.0
25.303948163986206,251,1.0,30.0,2.0
25.31415629386902,618,1.0,30.0,2.0
25.320964813232422,282,1.0,30.0,2.0
25.32851219177246,768,1.0,30.0,2.0
25.34281897544861,262,1.0,30.0,2.0
25.350480318069458,607,1.0,30.0,2.0
25.358227252960205,163,1.0,30.0,2.0
25.374268293380737,305,1.0,30.0,2.0
25.381170988082886,334,1.0,30.0,2.0
25.393227100372314,605,1.0,30.0,2.0
25.4039363861084,313,1.0,30.0,2.0
25.41189956665039,144,1.0,30.0,2.0
25.42404055595398,215,1.0,30.0,2.0
25.433950662612915,290,1.0,30.0,2.0
25.444353818893433,240,1.0,30.0,2.0
25.453760147094727,240,1.0,30.0,2.0
25.464348793029785,144,1.0,30.0,2.0
25.474272966384888,63,1.0,30.0,2.0
25.480963230133057,304,1.0,30.0,2.0
25.493263483047485,208,1.0,30.0,2.0
25.503997325897217,188,1.0,30.0,2.0
25.51167917251587,0,1.0,30.0,2.0
25.5238516330719,90,1.0,30.0,2.0
25.533376932144165,64,1.0,30.0,2.0
25.54437255859375,208,1.0,30.0,2.0
25.55401611328125,75,1.0,30.0,2.0
25.56199812889099,1629,1.0,30.0,2.0
25.574057579040527,2402,1.0,30.0,2.0
25.5843722820282,277,1.0,30.0,2.0
25.59375500679016,604,1.0,30.0,2.0
25.604109525680542,1110,1.0,30.0,2.0
25.61144232749939,688,1.0,30.0,2.0
25.624094486236572,505,1.0,30.0,2.0
25.62796974182129,0,1.0,30.0,2.0
25.643452882766724,141,1.0,30.0,2.0
25.65412187576294,528,1.0,30.0,2.0
25.6644766330719,548,1.0,30.0,2.0
25.673107862472534,0,1.0,30.0,2.0
25.682065725326538,1296,1.0,30.0,2.0
25.693788528442383,272,1.0,30.0,2.0
25.703799724578857,592,1.0,30.0,2.0
25.713236093521118,699,1.0,30.0,2.0
25.723018169403076,0,1.0,30.0,2.0
25.72712755203247,0,1.0,30.0,2.0
25.743507623672485,554,1.0,30.0,2.0
25.753763675689697,188,1.0,30.0,2.0
25.758420705795288,236,1.0,30.0,2.0
25.773570775985718,382,1.0,30.0,2.0
25.784780979156494,162,1.0,30.0,2.0
25.793494939804077,179,1.0,30.0,2.0
25.80361580848694,243,1.0,30.0,2.0
25.814494609832764,108,1.0,30.0,2.0
25.823402166366577,192,1.0,30.0,2.0
25.834023237228394,85,1.0,30.0,2.0
25.844306707382202,178,1.0,30.0,2.0
25.85418677330017,554,1.0,30.0,2.0
25.8586642742157,6,1.0,30.0,2.0
25.87425923347473,1746,1.0,30.0,2.0
25.880502939224243,1746,1.0,30.0,2.0
25.89128041267395,1835,1.0,30.0,2.0
25.903958559036255,4095,1.0,30.0,2.0
25.913410186767578,1360,1.0,30.0,2.0
25.92415738105774,4095,1.0,30.0,2.0
25.934248447418213,2583,1.0,30.0,2.0
25.94327974319458,4095,1.0,30.0,2.0
25.95358657836914,1264,1.0,30.0,2.0
25.963075876235962,4095,1.0,30.0,2.0
25.97384285926819,2209,1.0,30.0,2.0
25.98341393470764,4095,1.0,30.0,2.0
25.993433237075806,4095,1.0,30.0,2.0
26.00398063659668,2859,1.0,30.0,2.0
26.013887882232666,1723,1.0,30.0,2.0
26.02434015274048,4095,1.0,30.0,2.0
26.034262657165527,2122,1.0,30.0,2.0
26.03629779815674,4095,1.0,30.0,2.0
26.053544521331787,2301,1.0,30.0,2.0
26.063669681549072,4095,1.0,30.0,2.0
26.073286294937134,2412,1.0,30.0,2.0
26.083829879760742,4095,1.0,30.0,2.0
26.09415078163147,1632,1.0,30.0,2.0
26.103727102279663,4095,1.0,30.0,2.0
26.113584995269775,747,1.0,30.0,2.0
26.124369859695435,4095,1.0,30.0,2.0
26.134223461151123,347,1.0,30.0,2.0
26.144211292266846,4095,1.0,30.0,2.0
26.154300451278687,304,1.0,30.0,2.0
26.164379596710205,4095,1.0,30.0,2.0
26.174335718154907,274,1.0,30.0,2.0
26.183351755142212,4095,1.0,30.0,2.0
26.194303512573242,301,1.0,30.0,2.0
26.204360246658325,4095,1.0,30.0,2.0
26.213520765304565,257,1.0,30.0,2.0
26.224183559417725,4095,1.0,30.0,2.0
26.234251976013184,238,1.0,30.0,2.0
26.24430012702942,944,1.0,30.0,2.0
26.25422239303589,48,1.0,30.0,2.0
26.25569987297058,0,1.0,30.0,2.0
26.274370431900024,1442,1.0,30.0,2.0
26.283366680145264,796,1.0,30.0,2.0
26.29340672492981,801,1.0,30.0,2.0
26.303499460220337,821,1.0,30.0,2.0
26.309356927871704,1171,1.0,30.0,2.0
26.323364734649658,864,1.0,30.0,2.0
26.334416151046753,2017,1.0,30.0,2.0
26.336849689483643,1746,1.0,30.0,2.0
26.35439682006836,1854,1.0,30.0,2.0
26.363506317138672,1751,1.0,30.0,2.0
26.374491214752197,1883,1.0,30.0,2.0
26.383637189865112,208,1.0,30.0,2.0
26.393510580062866,192,1.0,30.0,2.0
26.404290676116943,80,1.0,30.0,2.0
26.404290676116943,0,1.0,30.0,2.0
26.423461437225342,80,1.0,30.0,2.0
26.433281660079956,2431,1.0,30.0,2.0
26.44342613220215,179,1.0,30.0,2.0
26.45342516899109,277,1.0,30.0,2.0
26.463448762893677,4095,1.0,30.0,2.0
26.473437547683716,273,1.0,30.0,2.0
26.48342251777649,4095,1.0,30.0,2.0
26.493456840515137,281,1.0,30.0,2.0
26.503435134887695,4095,1.0,30.0,2.0
26.513451099395752,211,1.0,30.0,2.0
26.524256467819214,4095,1.0,30.0,2.0
26.53378129005432,139,1.0,30.0,2.0
26.538774967193604,4095,1.0,30.0,2.0
26.553555011749268,62,1.0,30.0,2.0
26.55455231666565,4095,1.0,30.0,2.0
26.565691709518433,0,1.0,30.0,2.0
26.58341383934021,4095,1.0,30.0,2.0
26.59342861175537,148,1.0,30.0,2.0
26.603461265563965,4095,1.0,30.0,2.0
26.613442182540894,92,1.0,30.0,2.0
26.62340998649597,4095,1.0,30.0,2.0
26.633435249328613,989,1.0,30.0,2.0
26.643410444259644,3324,1.0,30.0,2.0
26.653422594070435,1391,1.0,30.0,2.0
26.6634783744812,4095,1.0,30.0,2.0
26.673410654067993,1694,1.0,30.0,2.0
26.68343710899353,3173,1.0,30.0,2.0
26.694406032562256,1326,1.0,30.0,2.0
26.703392267227173,4095,1.0,30.0,2.0
26.713438272476196,1775,1.0,30.0,2.0
26.723689556121826,2446,1.0,30.0,2.0
26.72935676574707,1893,1.0,30.0,2.0
26.73784351348877,2236,1.0,30.0,2.0
26.75377655029297,1971,1.0,30.0,2.0
26.76343536376953,1962,1.0,30.0,2.0
26.774102449417114,1712,1.0,30.0,2.0
26.775091648101807,1857,1.0,30.0,2.0
26.794365406036377,1085,1.0,30.0,2.0
26.80439519882202,1633,1.0,30.0,2.0
26.813436031341553,1946,1.0,30.0,2.0
26.823405027389526,1385,1.0,30.0,2.0
26.833419799804688,1622,1.0,30.0,2.0
26.84437918663025,1490,1.0,30.0,2.0
26.854406118392944,1731,1.0,30.0,2.0
26.86340880393982,1307,1.0,30.0,2.0
26.873396396636963,1562,1.0,30.0,2.0
26.88345217704773,1296,1.0,30.0,2.0
26.884453535079956,1733,1.0,30.0,2.0
26.903408527374268,1461,1.0,30.0,2.0
26.913450241088867,1695,1.0,30.0,2.0
26.924235343933105,1267,1.0,30.0,2.0
26.930104970932007,1697,1.0,30.0,2.0
26.94339656829834,1207,1.0,30.0,2.0
26.953396320343018,1616,1.0,30.0,2.0
26.96337890625,1375,1.0,30.0,2.0
26.9734525680542,1597,1.0,30.0,2.0
26.983413219451904,1234,1.0,30.0,2.0
26.993443727493286,1695,1.0,30.0,2.0
27.003438711166382,1191,1.0,30.0,2.0
27.013418674468994,1407,1.0,30.0,2.0
27.023382425308228,1447,1.0,30.0,2.0
27.033983945846558,1171,1.0,30.0,2.0
27.043397426605225,1406,1.0,30.0,2.0
27.053449392318726,1678,1.0,30.0,2.0
27.063429594039917,1031,1.0,30.0,2.0
27.073401927947998,2475,1.0,30.0,2.0
27.08341073989868,1738,1.0,30.0,2.0
27.09342336654663,1631,1.0,30.0,2.0
27.104392766952515,1920,1.0,30.0,2.0
27.11342763900757,256,1.0,30.0,2.0
27.1234450340271,1488,1.0,30.0,2.0
27.133419036865234,1535,1.0,30.0,2.0
27.14373230934143,1502,1.0,30.0,2.0
27.1536283493042,1488,1.0,30.0,2.0
27.16412043571472,1280,1.0,30.0,2.0
27.174356698989868,2082,1.0,30.0,2.0
27.18338918685913,560,1.0,30.0,2.0
27.19342613220215,1548,1.0,30.0,2.0
27.20341157913208,1600,1.0,30.0,2.0
27.213406562805176,1173,1.0,30.0,2.0
27.223383903503418,624,1.0,30.0,2.0
27.233410358428955,976,1.0,30.0,2.0
27.24339723587036,769,1.0,30.0,2.0
27.253392696380615,1082,1.0,30.0,2.0
27.263418436050415,1597,1.0,30.0,2.0
27.273388385772705,1398,1.0,30.0,2.0
27.283427000045776,1488,1.0,30.0,2.0
27.293423891067505,1253,1.0,30.0,2.0
27.304381132125854,1042,1.0,30.0,2.0
27.313410997390747,1216,1.0,30.0,2.0
27.323408603668213,944,1.0,30.0,2.0
27.325469255447388,1330,1.0,30.0,2.0
27.343997478485107,864,1.0,30.0,2.0
27.35433578491211,1246,1.0,30.0,2.0
27.363343715667725,907,1.0,30.0,2.0
27.369969606399536,1500,1.0,30.0,2.0
27.38346219062805,1035,1.0,30.0,2.0
27.393419981002808,1702,1.0,30.0,2.0
27.403385639190674,1118,1.0,30.0,2.0
27.413418292999268,1635,1.0,30.0,2.0
27.423386573791504,1040,1.0,30.0,2.0
27.433422565460205,1686,1.0,30.0,2.0
27.444374799728394,1034,1.0,30.0,2.0
27.45437979698181,1602,1.0,30.0,2.0
27.46338725090027,1015,1.0,30.0,2.0
27.473411083221436,1595,1.0,30.0,2.0
27.483385801315308,1105,1.0,30.0,2.0
27.49437165260315,1427,1.0,30.0,2.0
27.503382921218872,1338,1.0,30.0,2.0
27.513396739959717,1675,1.0,30.0,2.0
27.52341079711914,1094,1.0,30.0,2.0
27.52441143989563,1553,1.0,30.0,2.0
27.54396367073059,1571,1.0,30.0,2.0
27.55439043045044,1630,1.0,30.0,2.0
27.563756942749023,1605,1.0,30.0,2.0
27.574379444122314,1653,1.0,30.0,2.0
27.58437442779541,1621,1.0,30.0,2.0
27.593428373336792,1546,1.0,30.0,2.0
27.60328483581543,1555,1.0,30.0,2.0
27.613369703292847,976,1.0,30.0,2.0
27.623379707336426,1543,1.0,30.0,2.0
27.633383989334106,1457,1.0,30.0,2.0
27.643393993377686,1462,1.0,30.0,2.0
27.653380393981934,1329,1.0,30.0,2.0
27.66438055038452,1531,1.0,30.0,2.0
27.673380374908447,903,1.0,30.0,2.0
27.683380365371704,1520,1.0,30.0,2.0
27.693375825881958,1397,1.0,30.0,2.0
27.704381227493286,1534,1.0,30.0,2.0
27.71338677406311,1456,1.0,30.0,2.0
27.723384857177734,1569,1.0,30.0,2.0
27.734379291534424,1377,1.0,30.0,2.0
27.74337887763977,1532,1.0,30.0,2.0
27.753380298614502,1314,1.0,30.0,2.0
27.763408184051514,1260,1.0,30.0,2.0
27.77423095703125,1083,1.0,30.0,2.0
27.78333830833435,847,1.0,30.0,2.0
27.79337739944458,1321,1.0,30.0,2.0
27.80440330505371,820,1.0,30.0,2.0
27.813364505767822,1855,1.0,30.0,2.0
27.82007932662964,1179,1.0,30.0,2.0
27.834365129470825,1635,1.0,30.0,2.0
27.843379497528076,1854,1.0,30.0,2.0
27.853376865386963,1485,1.0,30.0,2.0
27.863422870635986,2154,1.0,30.0,2.0
27.87338399887085,1430,1.0,30.0,2.0
27.883375883102417,2366,1.0,30.0,2.0
27.893383502960205,1458,1.0,30.0,2.0
27.90337872505188,1946,1.0,30.0,2.0
27.913392305374146,1809,1.0,30.0,2.0
27.923351049423218,391,1.0,30.0,2.0
27.933380603790283,1073,1.0,30.0,2.0
27.94340205192566,1435,1.0,30.0,2.0
27.953376293182373,2545,1.0,30.0,2.0
27.95437479019165,58,1.0,30.0,2.0
27.964383840560913,48,1.0,30.0,2.0
27.974387884140015,36,1.0,30.0,2.0
27.992766857147217,92,1.0,30.0,2.0
28.002437829971313,0,1.0,30.0,2.0
28.011452198028564,96,1.0,30.0,2.0
28.020898580551147,0,1.0,30.0,2.0
28.033493757247925,436,1.0,30.0,2.0
28.043578386306763,123,1.0,30.0,2.0
28.05449891090393,466,1.0,30.0,2.0
28.06355047225952,335,1.0,30.0,2.0
28.07351016998291,455,1.0,30.0,2.0
28.08340311050415,368,1.0,30.0,2.0
28.09437584877014,1979,1.0,30.0,2.0
28.103382349014282,1725,1.0,30.0,2.0
28.113404750823975,1055,1.0,30.0,2.0
28.12437391281128,1510,1.0,30.0,2.0
28.133351802825928,1203,1.0,30.0,2.0
28.14339280128479,1616,1.0,30.0,2.0
28.153385400772095,1153,1.0,30.0,2.0
28.164361000061035,1648,1.0,30.0,2.0
28.17339015007019,1168,1.0,30.0,2.0
28.183379888534546,1657,1.0,30.0,2.0
28.193358659744263,1174,1.0,30.0,2.0
28.203376054763794,1502,1.0,30.0,2.0
28.214123725891113,1274,1.0,30.0,2.0
28.22435998916626,1411,1.0,30.0,2.0
28.23337745666504,1217,1.0,30.0,2.0
28.236474752426147,1454,1.0,30.0,2.0
28.253169775009155,1245,1.0,30.0,2.0
28.264322757720947,1479,1.0,30.0,2.0
28.27337646484375,1255,1.0,30.0,2.0
28.283353567123413,1561,1.0,30.0,2.0
28.293370485305786,1178,1.0,30.0,2.0
28.30436062812805,1521,1.0,30.0,2.0
28.313380002975464,1209,1.0,30.0,2.0
28.324377059936523,1518,1.0,30.0,2.0
28.334352016448975,1191,1.0,30.0,2.0
28.34339189529419,1515,1.0,30.0,2.0
28.353376388549805,1159,1.0,30.0,2.0
28.363375425338745,1608,1.0,30.0,2.0
28.37337851524353,1136,1.0,30.0,2.0
28.384352445602417,1473,1.0,30.0,2.0
28.39337992668152,1170,1.0,30.0,2.0
28.40339708328247,1524,1.0,30.0,2.0
28.414400577545166,1125,1.0,30.0,2.0
28.42407989501953,1534,1.0,30.0,2.0
28.43436622619629,1136,1.0,30.0,2.0
28.44336462020874,1419,1.0,30.0,2.0
28.45245051383972,1151,1.0,30.0,2.0
28.463380575180054,1425,1.0,30.0,2.0
28.473381519317627,1194,1.0,30.0,2.0
28.483389139175415,1411,1.0,30.0,2.0
28.4943630695343,1136,1.0,30.0,2.0
28.50339984893799,1376,1.0,30.0,2.0
28.513391971588135,1012,1.0,30.0,2.0
28.523375988006592,1361,1.0,30.0,2.0
28.526968717575073,1089,1.0,30.0,2.0
28.543402433395386,1387,1.0,30.0,2.0
28.553380012512207,1075,1.0,30.0,2.0
28.56393814086914,1070,1.0,30.0,2.0
28.573396921157837,1030,1.0,30.0,2.0
28.583378791809082,1718,1.0,30.0,2.0
28.593385696411133,782,1.0,30.0,2.0
28.604345321655273,1688,1.0,30.0,2.0
28.613378763198853,621,1.0,30.0,2.0
28.623353242874146,1234,1.0,30.0,2.0
28.633434295654297,1821,1.0,30.0,2.0
28.638648748397827,1626,1.0,30.0,2.0
28.65337347984314,1531,1.0,30.0,2.0
28.663361072540283,1310,1.0,30.0,2.0
28.66973114013672,1039,1.0,30.0,2.0
28.68437910079956,1663,1.0,30.0,2.0
28.693400144577026,1232,1.0,30.0,2.0
28.703378438949585,1466,1.0,30.0,2.0
28.713399171829224,1229,1.0,30.0,2.0
28.723379611968994,1191,1.0,30.0,2.0
28.73335313796997,973,1.0,30.0,2.0
28.74336528778076,1526,1.0,30.0,2.0
28.744375228881836,865,1.0,30.0,2.0
28.763375520706177,1373,1.0,30.0,2.0
28.774360179901123,1185,1.0,30.0,2.0
28.783397436141968,1393,1.0,30.0,2.0
28.79335379600525,875,1.0,30.0,2.0
28.80340051651001,1330,1.0,30.0,2.0
28.804398775100708,891,1.0,30.0,2.0
28.824368238449097,1152,1.0,30.0,2.0
28.824368238449097,899,1.0,30.0,2.0
28.843231678009033,1131,1.0,30.0,2.0
28.852388620376587,1296,1.0,30.0,2.0
28.86039113998413,1142,1.0,30.0,2.0
28.872272729873657,847,1.0,30.0,2.0
28.88245439529419,1211,1.0,30.0,2.0
28.886325120925903,850,1.0,30.0,2.0
28.903398990631104,1078,1.0,30.0,2.0
28.904396772384644,766,1.0,30.0,2.0
28.923399209976196,1029,1.0,30.0,2.0
28.924398183822632,848,1.0,30.0,2.0
28.93440556526184,990,1.0,30.0,2.0
28.944405555725098,799,1.0,30.0,2.0
28.95440673828125,848,1.0,30.0,2.0
28.964406728744507,720,1.0,30.0,2.0
28.974405527114868,922,1.0,30.0,2.0
28.98440670967102,774,1.0,30.0,2.0
29.003398418426514,1001,1.0,30.0,2.0
29.004396438598633,752,1.0,30.0,2.0
29.02336287498474,530,1.0,30.0,2.0
29.024363040924072,733,1.0,30.0,2.0
29.03437328338623,931,1.0,30.0,2.0
29.05313491821289,701,1.0,30.0,2.0
29.060299158096313,848,1.0,30.0,2.0
29.070727825164795,669,1.0,30.0,2.0
29.082139015197754,821,1.0,30.0,2.0
29.086334228515625,689,1.0,30.0,2.0
29.104159116744995,1735,1.0,30.0,2.0
29.104159116744995,640,1.0,30.0,2.0
29.11424708366394,833,1.0,30.0,2.0
29.125311851501465,670,1.0,30.0,2.0
29.143372774124146,1702,1.0,30.0,2.0
29.144370794296265,699,1.0,30.0,2.0
29.163395643234253,1648,1.0,30.0,2.0
29.164393663406372,816,1.0,30.0,2.0
29.183396816253662,1826,1.0,30.0,2.0
29.193121910095215,942,1.0,30.0,2.0
29.20341730117798,1753,1.0,30.0,2.0
29.20441460609436,643,1.0,30.0,2.0
29.223400592803955,1854,1.0,30.0,2.0
29.23339581489563,1877,1.0,30.0,2.0
29.243396043777466,1735,1.0,30.0,2.0
29.253398895263672,1669,1.0,30.0,2.0
29.263265132904053,1363,1.0,30.0,2.0
29.27339196205139,1314,1.0,30.0,2.0
29.28339982032776,1346,1.0,30.0,2.0
29.28831696510315,1520,1.0,30.0,2.0
29.303356647491455,1650,1.0,30.0,2.0
29.313356399536133,1456,1.0,30.0,2.0
29.31435489654541,135,1.0,30.0,2.0
29.333396673202515,1394,1.0,30.0,2.0
29.343400478363037,1286,1.0,30.0,2.0
29.353398323059082,1211,1.0,30.0,2.0
29.363399267196655,1218,1.0,30.0,2.0
29.373371839523315,1040,1.0,30.0,2.0
29.37610912322998,917,1.0,30.0,2.0
29.386136770248413,759,1.0,30.0,2.0
29.40339493751526,1648,1.0,30.0,2.0
29.413399696350098,1885,1.0,30.0,2.0
29.4233980178833,1601,1.0,30.0,2.0
29.42439603805542,710,1.0,30.0,2.0
29.443403482437134,1360,1.0,30.0,2.0
29.444401025772095,630,1.0,30.0,2.0
29.454410791397095,45,1.0,30.0,2.0
29.47388243675232,1758,1.0,30.0,2.0
29.483357667922974,1798,1.0,30.0,2.0
29.487701892852783,251,1.0,30.0,2.0
29.50220823287964,32,1.0,30.0,2.0
29.511218070983887,34,1.0,30.0,2.0
29.523372650146484,1315,1.0,30.0,2.0
29.5333731174469,2023,1.0,30.0,2.0
29.53437066078186,989,1.0,30.0,2.0
29.553386688232422,1696,1.0,30.0,2.0
29.56437087059021,1911,1.0,30.0,2.0
29.56437087059021,0,1.0,30.0,2.0
29.583372116088867,1453,1.0,30.0,2.0
29.593437671661377,2128,1.0,30.0,2.0
29.60340142250061,1456,1.0,30.0,2.0
29.61339783668518,1488,1.0,30.0,2.0
29.623401641845703,1811,1.0,30.0,2.0
29.6243999004364,887,1.0,30.0,2.0
29.643396377563477,2076,1.0,30.0,2.0
29.653393268585205,1527,1.0,30.0,2.0
29.654391050338745,355,1.0,30.0,2.0
29.673396110534668,1546,1.0,30.0,2.0
29.683399200439453,1670,1.0,30.0,2.0
29.69352912902832,1552,1.0,30.0,2.0
29.703161478042603,0,1.0,30.0,2.0
29.71332621574402,1695,1.0,30.0,2.0
29.71885371208191,227,1.0,30.0,2.0
29.733635187149048,1580,1.0,30.0,2.0
29.743558168411255,1359,1.0,30.0,2.0
29.75351119041443,1723,1.0,30.0,2.0
29.764507293701172,1319,1.0,30.0,2.0
29.77355194091797,1711,1.0,30.0,2.0
29.78340220451355,1319,1.0,30.0,2.0
29.793402433395386,1813,1.0,30.0,2.0
29.80343770980835,1011,1.0,30.0,2.0
29.813394784927368,1475,1.0,30.0,2.0
29.814395904541016,993,1.0,30.0,2.0
29.833397388458252,1493,1.0,30.0,2.0
29.84337091445923,1340,1.0,30.0,2.0
29.85337257385254,1394,1.0,30.0,2.0
29.86337423324585,1310,1.0,30.0,2.0
29.87346315383911,1363,1.0,30.0,2.0
29.88339900970459,1350,1.0,30.0,2.0
29.893434286117554,1504,1.0,30.0,2.0
29.903294324874878,1201,1.0,30.0,2.0
29.91341519355774,2505,1.0,30.0,2.0
29.920666933059692,1664,1.0,30.0,2.0
29.93340039253235,1581,1.0,30.0,2.0
29.936484575271606,1229,1.0,30.0,2.0
29.953542709350586,1361,1.0,30.0,2.0
29.95439386367798,751,1.0,30.0,2.0
29.973370790481567,1386,1.0,30.0,2.0
29.974368572235107,812,1.0,30.0,2.0
29.984378337860107,0,1.0,30.0,2.0
29.994399309158325,480,1.0,30.0,2.0
