Timestamp,EMG Value,massage_speed,massage_duration,relaxment_level
0.003394603729248047,4095,3.0,30.0,5.0
0.013491153717041016,1058,3.0,30.0,5.0
0.02349233627319336,4095,3.0,30.0,5.0
0.03569388389587402,1168,3.0,30.0,5.0
0.04544234275817871,4095,3.0,30.0,5.0
0.055338144302368164,1222,3.0,30.0,5.0
0.06390929222106934,4095,3.0,30.0,5.0
0.07470989227294922,1174,3.0,30.0,5.0
0.08492183685302734,4095,3.0,30.0,5.0
0.09472537040710449,1279,3.0,30.0,5.0
0.10492777824401855,4095,3.0,30.0,5.0
0.11597418785095215,1170,3.0,30.0,5.0
0.12591290473937988,4095,3.0,30.0,5.0
0.1358661651611328,1073,3.0,30.0,5.0
0.14487719535827637,4095,3.0,30.0,5.0
0.15489864349365234,991,3.0,30.0,5.0
0.16591405868530273,4095,3.0,30.0,5.0
0.17591023445129395,913,3.0,30.0,5.0
0.185899019241333,4095,3.0,30.0,5.0
0.19489479064941406,848,3.0,30.0,5.0
0.20593762397766113,4095,3.0,30.0,5.0
0.21515321731567383,784,3.0,30.0,5.0
0.22590065002441406,4095,3.0,30.0,5.0
0.23506903648376465,707,3.0,30.0,5.0
0.24229168891906738,4095,3.0,30.0,5.0
0.2552304267883301,677,3.0,30.0,5.0
0.2649092674255371,4095,3.0,30.0,5.0
0.27588987350463867,842,3.0,30.0,5.0
0.2848775386810303,4095,3.0,30.0,5.0
0.2948942184448242,1671,3.0,30.0,5.0
0.3049018383026123,4095,3.0,30.0,5.0
0.3158988952636719,560,3.0,30.0,5.0
0.3259453773498535,4095,3.0,30.0,5.0
0.33593297004699707,1557,3.0,30.0,5.0
0.34589481353759766,4095,3.0,30.0,5.0
0.3549492359161377,1670,3.0,30.0,5.0
0.3659534454345703,4095,3.0,30.0,5.0
0.3758735656738281,1063,3.0,30.0,5.0
0.38590002059936523,4095,3.0,30.0,5.0
0.3959345817565918,1138,3.0,30.0,5.0
0.4049222469329834,4095,3.0,30.0,5.0
0.41600751876831055,1345,3.0,30.0,5.0
0.4251878261566162,4095,3.0,30.0,5.0
0.435880184173584,1323,3.0,30.0,5.0
0.44075489044189453,4095,3.0,30.0,5.0
0.4553663730621338,1299,3.0,30.0,5.0
0.4660019874572754,4095,3.0,30.0,5.0
0.47568798065185547,1160,3.0,30.0,5.0
0.47622060775756836,4095,3.0,30.0,5.0
0.4959256649017334,1018,3.0,30.0,5.0
0.504946231842041,4095,3.0,30.0,5.0
0.5059430599212646,906,3.0,30.0,5.0
0.5259411334991455,4095,3.0,30.0,5.0
0.5273697376251221,986,3.0,30.0,5.0
0.5459244251251221,4095,3.0,30.0,5.0
0.5549452304840088,529,3.0,30.0,5.0
0.5659406185150146,4095,3.0,30.0,5.0
0.5759778022766113,423,3.0,30.0,5.0
0.5849511623382568,4095,3.0,30.0,5.0
0.5949091911315918,350,3.0,30.0,5.0
0.6049721240997314,4095,3.0,30.0,5.0
0.6059689521789551,558,3.0,30.0,5.0
0.6263720989227295,4095,3.0,30.0,5.0
0.6346521377563477,416,3.0,30.0,5.0
0.6459019184112549,4095,3.0,30.0,5.0
0.6549124717712402,208,3.0,30.0,5.0
0.6658530235290527,4095,3.0,30.0,5.0
0.67275071144104,0,3.0,30.0,5.0
0.6849355697631836,4095,3.0,30.0,5.0
0.6948702335357666,591,3.0,30.0,5.0
0.7049200534820557,4095,3.0,30.0,5.0
0.7049200534820557,336,3.0,30.0,5.0
0.7169063091278076,4095,3.0,30.0,5.0
0.7357668876647949,2239,3.0,30.0,5.0
0.7454144954681396,4095,3.0,30.0,5.0
0.7521936893463135,4095,3.0,30.0,5.0
0.7659142017364502,4095,3.0,30.0,5.0
0.775864839553833,4095,3.0,30.0,5.0
0.7859649658203125,4095,3.0,30.0,5.0
0.795905590057373,4095,3.0,30.0,5.0
0.8049139976501465,4095,3.0,30.0,5.0
0.8159534931182861,4095,3.0,30.0,5.0
0.8249082565307617,4095,3.0,30.0,5.0
0.8349184989929199,4095,3.0,30.0,5.0
0.8448693752288818,4095,3.0,30.0,5.0
0.8549730777740479,4095,3.0,30.0,5.0
0.8651313781738281,4095,3.0,30.0,5.0
0.8738775253295898,4095,3.0,30.0,5.0
0.8858633041381836,4095,3.0,30.0,5.0
0.8898026943206787,4095,3.0,30.0,5.0
0.9049539566040039,4095,3.0,30.0,5.0
0.9158008098602295,4095,3.0,30.0,5.0
0.9258337020874023,4095,3.0,30.0,5.0
0.9359571933746338,4095,3.0,30.0,5.0
0.9459133148193359,4095,3.0,30.0,5.0
0.9549305438995361,4095,3.0,30.0,5.0
0.9657461643218994,4095,3.0,30.0,5.0
0.9759278297424316,4095,3.0,30.0,5.0
0.9811141490936279,4095,3.0,30.0,5.0
0.9959096908569336,4095,3.0,30.0,5.0
1.0049560070037842,4095,3.0,30.0,5.0
1.0159657001495361,4095,3.0,30.0,5.0
1.0250370502471924,4095,3.0,30.0,5.0
1.0353248119354248,4019,3.0,30.0,5.0
1.0455079078674316,4095,3.0,30.0,5.0
1.0551137924194336,4095,3.0,30.0,5.0
1.065077781677246,4095,3.0,30.0,5.0
1.0755584239959717,4095,3.0,30.0,5.0
1.0848963260650635,4095,3.0,30.0,5.0
1.0949008464813232,4095,3.0,30.0,5.0
1.1057183742523193,4095,3.0,30.0,5.0
1.112769365310669,3013,3.0,30.0,5.0
1.126333475112915,4095,3.0,30.0,5.0
1.1358959674835205,3164,3.0,30.0,5.0
1.145878791809082,4095,3.0,30.0,5.0
1.15507173538208,3778,3.0,30.0,5.0
1.1649725437164307,4095,3.0,30.0,5.0
1.1749248504638672,4095,3.0,30.0,5.0
1.1849148273468018,4095,3.0,30.0,5.0
1.195892095565796,4095,3.0,30.0,5.0
1.1968176364898682,4095,3.0,30.0,5.0
1.2158935070037842,3825,3.0,30.0,5.0
1.2249302864074707,4095,3.0,30.0,5.0
1.2362542152404785,3909,3.0,30.0,5.0
1.2458891868591309,4095,3.0,30.0,5.0
1.2554662227630615,4095,3.0,30.0,5.0
1.265427589416504,4095,3.0,30.0,5.0
1.2748935222625732,3741,3.0,30.0,5.0
1.2789866924285889,4095,3.0,30.0,5.0
1.295508861541748,4095,3.0,30.0,5.0
1.3055472373962402,4095,3.0,30.0,5.0
1.312042236328125,955,3.0,30.0,5.0
1.3259599208831787,4095,3.0,30.0,5.0
1.3360710144042969,1449,3.0,30.0,5.0
1.3360710144042969,4095,3.0,30.0,5.0
1.3549175262451172,1490,3.0,30.0,5.0
1.3647456169128418,4095,3.0,30.0,5.0
1.3755342960357666,4095,3.0,30.0,5.0
1.3814339637756348,4095,3.0,30.0,5.0
1.3954071998596191,4095,3.0,30.0,5.0
1.4051423072814941,4095,3.0,30.0,5.0
1.4149677753448486,1930,3.0,30.0,5.0
1.4252700805664062,4095,3.0,30.0,5.0
1.434852123260498,2105,3.0,30.0,5.0
1.445626974105835,4095,3.0,30.0,5.0
1.455188274383545,1611,3.0,30.0,5.0
1.4659042358398438,4095,3.0,30.0,5.0
1.4746348857879639,1031,3.0,30.0,5.0
1.4852840900421143,4095,3.0,30.0,5.0
1.4951367378234863,2009,3.0,30.0,5.0
1.5050525665283203,4095,3.0,30.0,5.0
1.5148789882659912,1226,3.0,30.0,5.0
1.5255069732666016,4095,3.0,30.0,5.0
1.535961389541626,960,3.0,30.0,5.0
1.5457308292388916,4095,3.0,30.0,5.0
1.555117130279541,914,3.0,30.0,5.0
1.5659499168395996,4095,3.0,30.0,5.0
1.5748934745788574,444,3.0,30.0,5.0
1.5848658084869385,4095,3.0,30.0,5.0
1.5948879718780518,2133,3.0,30.0,5.0
1.605654001235962,4095,3.0,30.0,5.0
1.6148221492767334,465,3.0,30.0,5.0
1.6255466938018799,4095,3.0,30.0,5.0
1.6356046199798584,436,3.0,30.0,5.0
1.641148328781128,4095,3.0,30.0,5.0
1.6555380821228027,887,3.0,30.0,5.0
1.6658539772033691,4095,3.0,30.0,5.0
1.6756234169006348,1571,3.0,30.0,5.0
1.6849236488342285,4095,3.0,30.0,5.0
1.6957175731658936,1353,3.0,30.0,5.0
1.7050368785858154,4095,3.0,30.0,5.0
1.715881586074829,1906,3.0,30.0,5.0
1.7253015041351318,4095,3.0,30.0,5.0
1.735166072845459,547,3.0,30.0,5.0
1.7448947429656982,3642,3.0,30.0,5.0
1.7554001808166504,965,3.0,30.0,5.0
1.7653074264526367,1999,3.0,30.0,5.0
1.7746996879577637,1007,3.0,30.0,5.0
1.7858903408050537,4095,3.0,30.0,5.0
1.7940905094146729,0,3.0,30.0,5.0
1.8053817749023438,4095,3.0,30.0,5.0
1.8146758079528809,162,3.0,30.0,5.0
1.8258695602416992,4095,3.0,30.0,5.0
1.8359527587890625,470,3.0,30.0,5.0
1.8404431343078613,4095,3.0,30.0,5.0
1.8557136058807373,1040,3.0,30.0,5.0
1.8648464679718018,4095,3.0,30.0,5.0
1.8758890628814697,4095,3.0,30.0,5.0
1.8854942321777344,4095,3.0,30.0,5.0
1.8950541019439697,4095,3.0,30.0,5.0
1.9050090312957764,4095,3.0,30.0,5.0
1.9148147106170654,4095,3.0,30.0,5.0
1.9249210357666016,4095,3.0,30.0,5.0
1.9359862804412842,4095,3.0,30.0,5.0
1.9456994533538818,4095,3.0,30.0,5.0
1.955014944076538,3779,3.0,30.0,5.0
1.965648889541626,4095,3.0,30.0,5.0
1.975477695465088,3223,3.0,30.0,5.0
1.9849286079406738,4095,3.0,30.0,5.0
1.9939215183258057,0,3.0,30.0,5.0
2.005192518234253,4095,3.0,30.0,5.0
2.013913631439209,0,3.0,30.0,5.0
2.025836229324341,4095,3.0,30.0,5.0
2.0338528156280518,797,3.0,30.0,5.0
2.0459232330322266,4095,3.0,30.0,5.0
2.0557138919830322,1098,3.0,30.0,5.0
2.065903902053833,4095,3.0,30.0,5.0
2.0759642124176025,1409,3.0,30.0,5.0
2.084862232208252,4095,3.0,30.0,5.0
2.094891309738159,931,3.0,30.0,5.0
2.1053855419158936,4095,3.0,30.0,5.0
2.1143362522125244,1243,3.0,30.0,5.0
2.125389575958252,4095,3.0,30.0,5.0
2.1359188556671143,240,3.0,30.0,5.0
2.1449129581451416,4095,3.0,30.0,5.0
2.1554484367370605,1293,3.0,30.0,5.0
2.1655023097991943,4095,3.0,30.0,5.0
2.175158977508545,3783,3.0,30.0,5.0
2.181723117828369,4095,3.0,30.0,5.0
2.1951699256896973,349,3.0,30.0,5.0
2.2051448822021484,4095,3.0,30.0,5.0
2.21480655670166,1443,3.0,30.0,5.0
2.224961042404175,4095,3.0,30.0,5.0
2.235961437225342,3485,3.0,30.0,5.0
2.240562915802002,4095,3.0,30.0,5.0
2.255438804626465,2336,3.0,30.0,5.0
2.26594614982605,4095,3.0,30.0,5.0
2.275601863861084,2638,3.0,30.0,5.0
2.2856438159942627,4095,3.0,30.0,5.0
2.294565200805664,4095,3.0,30.0,5.0
2.305479049682617,4095,3.0,30.0,5.0
2.31516432762146,2982,3.0,30.0,5.0
2.3256990909576416,4095,3.0,30.0,5.0
2.3353323936462402,3050,3.0,30.0,5.0
2.34462308883667,4095,3.0,30.0,5.0
2.355117082595825,2887,3.0,30.0,5.0
2.364989995956421,4095,3.0,30.0,5.0
2.3749256134033203,2235,3.0,30.0,5.0
2.384937286376953,4095,3.0,30.0,5.0
2.3947877883911133,1811,3.0,30.0,5.0
2.405076265335083,4095,3.0,30.0,5.0
2.415584087371826,1175,3.0,30.0,5.0
2.425224781036377,4095,3.0,30.0,5.0
2.435981512069702,1740,3.0,30.0,5.0
2.4448728561401367,4095,3.0,30.0,5.0
2.4481611251831055,977,3.0,30.0,5.0
2.465646982192993,4095,3.0,30.0,5.0
2.4738640785217285,919,3.0,30.0,5.0
2.485305070877075,4095,3.0,30.0,5.0
2.4949800968170166,1808,3.0,30.0,5.0
2.5054755210876465,4095,3.0,30.0,5.0
2.5149776935577393,1557,3.0,30.0,5.0
2.525010585784912,4095,3.0,30.0,5.0
2.5354349613189697,1859,3.0,30.0,5.0
2.541445732116699,4095,3.0,30.0,5.0
2.5556349754333496,1935,3.0,30.0,5.0
2.5653493404388428,4095,3.0,30.0,5.0
2.5755231380462646,1979,3.0,30.0,5.0
2.583974599838257,4095,3.0,30.0,5.0
2.594759702682495,1200,3.0,30.0,5.0
2.6048219203948975,4095,3.0,30.0,5.0
2.615739107131958,1097,3.0,30.0,5.0
2.6248672008514404,4095,3.0,30.0,5.0
2.634899616241455,1041,3.0,30.0,5.0
2.6406643390655518,4095,3.0,30.0,5.0
2.6548221111297607,994,3.0,30.0,5.0
2.664879083633423,4095,3.0,30.0,5.0
2.673560857772827,813,3.0,30.0,5.0
2.6846344470977783,4095,3.0,30.0,5.0
2.6922173500061035,3152,3.0,30.0,5.0
2.7055439949035645,4095,3.0,30.0,5.0
2.7080302238464355,900,3.0,30.0,5.0
2.725339889526367,4095,3.0,30.0,5.0
2.731637477874756,789,3.0,30.0,5.0
2.745577812194824,4095,3.0,30.0,5.0
2.7553329467773438,1989,3.0,30.0,5.0
2.7647788524627686,4095,3.0,30.0,5.0
2.775135040283203,4095,3.0,30.0,5.0
2.7855701446533203,4095,3.0,30.0,5.0
2.7955052852630615,4095,3.0,30.0,5.0
2.8050241470336914,4095,3.0,30.0,5.0
2.8154356479644775,4095,3.0,30.0,5.0
2.8254036903381348,4095,3.0,30.0,5.0
2.8311638832092285,4095,3.0,30.0,5.0
2.845262050628662,4095,3.0,30.0,5.0
2.8551816940307617,4095,3.0,30.0,5.0
2.8649659156799316,4095,3.0,30.0,5.0
2.874950885772705,4095,3.0,30.0,5.0
2.8849527835845947,4095,3.0,30.0,5.0
2.891623020172119,4095,3.0,30.0,5.0
2.905332326889038,4095,3.0,30.0,5.0
2.914808988571167,4095,3.0,30.0,5.0
2.9249114990234375,4095,3.0,30.0,5.0
2.9354841709136963,4095,3.0,30.0,5.0
2.9455084800720215,4095,3.0,30.0,5.0
2.9544711112976074,4095,3.0,30.0,5.0
2.9585070610046387,4095,3.0,30.0,5.0
2.9755024909973145,4095,3.0,30.0,5.0
2.9842395782470703,4095,3.0,30.0,5.0
2.997136354446411,4095,3.0,30.0,5.0
3.005070447921753,4095,3.0,30.0,5.0
3.014782190322876,4095,3.0,30.0,5.0
3.0252110958099365,4095,3.0,30.0,5.0
3.034897565841675,4095,3.0,30.0,5.0
3.0449507236480713,4095,3.0,30.0,5.0
3.055269718170166,4095,3.0,30.0,5.0
3.065274715423584,4095,3.0,30.0,5.0
3.0748629570007324,4095,3.0,30.0,5.0
3.0840811729431152,4095,3.0,30.0,5.0
3.0924036502838135,4095,3.0,30.0,5.0
3.105416774749756,4095,3.0,30.0,5.0
3.115922212600708,4095,3.0,30.0,5.0
3.1249454021453857,4095,3.0,30.0,5.0
3.1359810829162598,4095,3.0,30.0,5.0
3.145223379135132,4095,3.0,30.0,5.0
3.155590534210205,4095,3.0,30.0,5.0
3.165036678314209,4095,3.0,30.0,5.0
3.1749706268310547,4095,3.0,30.0,5.0
3.1848843097686768,4095,3.0,30.0,5.0
3.19462251663208,4095,3.0,30.0,5.0
3.204828977584839,4095,3.0,30.0,5.0
3.2153825759887695,4095,3.0,30.0,5.0
3.2239086627960205,4095,3.0,30.0,5.0
3.2357845306396484,4095,3.0,30.0,5.0
3.244899034500122,4095,3.0,30.0,5.0
3.2547733783721924,4095,3.0,30.0,5.0
3.2649757862091064,4095,3.0,30.0,5.0
3.2753217220306396,4095,3.0,30.0,5.0
3.285499095916748,4095,3.0,30.0,5.0
3.2909364700317383,4095,3.0,30.0,5.0
3.3054258823394775,4095,3.0,30.0,5.0
3.3147454261779785,4095,3.0,30.0,5.0
3.3248956203460693,4095,3.0,30.0,5.0
3.335967779159546,4095,3.0,30.0,5.0
3.344918727874756,4095,3.0,30.0,5.0
3.355478525161743,4095,3.0,30.0,5.0
3.3598413467407227,4095,3.0,30.0,5.0
3.375410795211792,4095,3.0,30.0,5.0
3.385226011276245,4095,3.0,30.0,5.0
3.3907105922698975,4095,3.0,30.0,5.0
3.4055373668670654,4095,3.0,30.0,5.0
3.409315824508667,4095,3.0,30.0,5.0
3.4249255657196045,4095,3.0,30.0,5.0
3.4349377155303955,4095,3.0,30.0,5.0
3.445981025695801,4095,3.0,30.0,5.0
3.4553616046905518,4095,3.0,30.0,5.0
3.4659316539764404,4095,3.0,30.0,5.0
3.474968910217285,4095,3.0,30.0,5.0
3.484835624694824,4095,3.0,30.0,5.0
3.4897892475128174,4095,3.0,30.0,5.0
3.505319118499756,4095,3.0,30.0,5.0
3.5154175758361816,4095,3.0,30.0,5.0
3.5259783267974854,4095,3.0,30.0,5.0
3.53499174118042,4095,3.0,30.0,5.0
3.5449180603027344,4095,3.0,30.0,5.0
3.5554168224334717,4095,3.0,30.0,5.0
3.5595831871032715,4095,3.0,30.0,5.0
3.5752811431884766,4095,3.0,30.0,5.0
3.5854952335357666,4095,3.0,30.0,5.0
3.5904552936553955,4095,3.0,30.0,5.0
3.6052422523498535,4095,3.0,30.0,5.0
3.614027976989746,4095,3.0,30.0,5.0
3.6225123405456543,4095,3.0,30.0,5.0
3.6349642276763916,4095,3.0,30.0,5.0
3.6459779739379883,4095,3.0,30.0,5.0
3.6553916931152344,4095,3.0,30.0,5.0
3.656407117843628,4095,3.0,30.0,5.0
3.6745245456695557,4095,3.0,30.0,5.0
3.685037851333618,4095,3.0,30.0,5.0
3.6949431896209717,4095,3.0,30.0,5.0
3.705486297607422,4095,3.0,30.0,5.0
3.7064852714538574,4095,3.0,30.0,5.0
3.724707841873169,4095,3.0,30.0,5.0
3.731890916824341,4095,3.0,30.0,5.0
3.745901346206665,4095,3.0,30.0,5.0
3.755521535873413,4095,3.0,30.0,5.0
3.7603585720062256,4095,3.0,30.0,5.0
3.7749950885772705,4095,3.0,30.0,5.0
3.784830331802368,4095,3.0,30.0,5.0
3.7953054904937744,4095,3.0,30.0,5.0
3.8049423694610596,4095,3.0,30.0,5.0
3.8069376945495605,4095,3.0,30.0,5.0
3.8226077556610107,4095,3.0,30.0,5.0
3.8353610038757324,4095,3.0,30.0,5.0
3.8458619117736816,4095,3.0,30.0,5.0
3.8553872108459473,4095,3.0,30.0,5.0
3.859236240386963,4095,3.0,30.0,5.0
3.875523805618286,4095,3.0,30.0,5.0
3.8858494758605957,4095,3.0,30.0,5.0
3.892195224761963,4095,3.0,30.0,5.0
3.904961585998535,4095,3.0,30.0,5.0
3.914034843444824,4095,3.0,30.0,5.0
3.9258921146392822,4095,3.0,30.0,5.0
3.929758071899414,4095,3.0,30.0,5.0
3.944009780883789,4095,3.0,30.0,5.0
3.9547157287597656,4095,3.0,30.0,5.0
3.95916748046875,4095,3.0,30.0,5.0
3.974637985229492,4095,3.0,30.0,5.0
3.9821834564208984,4095,3.0,30.0,5.0
3.9926300048828125,4095,3.0,30.0,5.0
4.004503488540649,4095,3.0,30.0,5.0
4.01417350769043,4095,3.0,30.0,5.0
4.023494243621826,4095,3.0,30.0,5.0
4.034792900085449,4095,3.0,30.0,5.0
4.044925928115845,4095,3.0,30.0,5.0
4.055352449417114,4095,3.0,30.0,5.0
4.058976411819458,4095,3.0,30.0,5.0
4.075129747390747,4095,3.0,30.0,5.0
4.0828857421875,4095,3.0,30.0,5.0
4.090526819229126,4095,3.0,30.0,5.0
4.105144739151001,4095,3.0,30.0,5.0
4.113455057144165,4095,3.0,30.0,5.0
4.123024940490723,4095,3.0,30.0,5.0
4.134737014770508,4095,3.0,30.0,5.0
4.144708633422852,4095,3.0,30.0,5.0
4.155045986175537,4095,3.0,30.0,5.0
4.165300607681274,4095,3.0,30.0,5.0
4.1749632358551025,4095,3.0,30.0,5.0
4.183920860290527,4095,3.0,30.0,5.0
4.192272663116455,4095,3.0,30.0,5.0
4.204433917999268,4095,3.0,30.0,5.0
4.213303327560425,4095,3.0,30.0,5.0
4.223892450332642,4095,3.0,30.0,5.0
4.235978364944458,4095,3.0,30.0,5.0
4.241546869277954,4095,3.0,30.0,5.0
4.254285573959351,4095,3.0,30.0,5.0
4.26468300819397,4095,3.0,30.0,5.0
4.273287534713745,4095,3.0,30.0,5.0
4.284748077392578,4095,3.0,30.0,5.0
4.2854790687561035,4095,3.0,30.0,5.0
4.296103239059448,4095,3.0,30.0,5.0
4.306149482727051,4095,3.0,30.0,5.0
4.3193583488464355,4095,3.0,30.0,5.0
4.329368829727173,4095,3.0,30.0,5.0
4.339369058609009,4095,3.0,30.0,5.0
4.354353666305542,4095,3.0,30.0,5.0
4.358365535736084,4095,3.0,30.0,5.0
4.368401527404785,4095,3.0,30.0,5.0
4.378402471542358,4095,3.0,30.0,5.0
4.38946008682251,4095,3.0,30.0,5.0
4.40104079246521,4095,3.0,30.0,5.0
4.414236545562744,4095,3.0,30.0,5.0
4.424125909805298,4095,3.0,30.0,5.0
4.4344704151153564,4095,3.0,30.0,5.0
4.444583415985107,4095,3.0,30.0,5.0
4.454777002334595,4095,3.0,30.0,5.0
4.4574079513549805,4095,3.0,30.0,5.0
4.474317789077759,4095,3.0,30.0,5.0
4.484334945678711,4095,3.0,30.0,5.0
4.494328737258911,4095,3.0,30.0,5.0
4.4951653480529785,4095,3.0,30.0,5.0
4.510645627975464,4095,3.0,30.0,5.0
4.520332336425781,4095,3.0,30.0,5.0
4.534692049026489,3775,3.0,30.0,5.0
4.541338205337524,4095,3.0,30.0,5.0
4.554330587387085,4095,3.0,30.0,5.0
4.5642595291137695,4095,3.0,30.0,5.0
4.5741236209869385,4095,3.0,30.0,5.0
4.581752777099609,4095,3.0,30.0,5.0
4.590891122817993,4095,3.0,30.0,5.0
4.604673624038696,4095,3.0,30.0,5.0
4.612353324890137,4095,3.0,30.0,5.0
4.624135971069336,4095,3.0,30.0,5.0
4.634471654891968,4095,3.0,30.0,5.0
4.6435723304748535,4095,3.0,30.0,5.0
4.6542699337005615,4095,3.0,30.0,5.0
4.66402268409729,4095,3.0,30.0,5.0
4.674067735671997,4095,3.0,30.0,5.0
4.681633949279785,4095,3.0,30.0,5.0
4.694896459579468,4095,3.0,30.0,5.0
4.704738616943359,4095,3.0,30.0,5.0
4.7113707065582275,4095,3.0,30.0,5.0
4.721595287322998,4095,3.0,30.0,5.0
4.734130859375,4095,3.0,30.0,5.0
4.744675397872925,4095,3.0,30.0,5.0
4.754162073135376,4095,3.0,30.0,5.0
4.756566286087036,4095,3.0,30.0,5.0
4.772049427032471,4095,3.0,30.0,5.0
4.782092094421387,4095,3.0,30.0,5.0
4.794930934906006,4095,3.0,30.0,5.0
4.794930934906006,4095,3.0,30.0,5.0
4.8061418533325195,4095,3.0,30.0,5.0
4.816150903701782,4095,3.0,30.0,5.0
4.8291215896606445,4095,3.0,30.0,5.0
4.84400749206543,4095,3.0,30.0,5.0
4.854274034500122,4095,3.0,30.0,5.0
4.864700555801392,4095,3.0,30.0,5.0
4.874893426895142,4095,3.0,30.0,5.0
4.884083032608032,4095,3.0,30.0,5.0
4.89506983757019,4095,3.0,30.0,5.0
4.89506983757019,4095,3.0,30.0,5.0
4.906517028808594,4095,3.0,30.0,5.0
4.91655421257019,4095,3.0,30.0,5.0
4.926554441452026,4095,3.0,30.0,5.0
4.941375732421875,4095,3.0,30.0,5.0
4.949727535247803,4095,3.0,30.0,5.0
4.9641969203948975,1670,3.0,30.0,5.0
4.972782373428345,4095,3.0,30.0,5.0
4.9818642139434814,4095,3.0,30.0,5.0
4.988276243209839,4095,3.0,30.0,5.0
5.003594398498535,2011,3.0,30.0,5.0
5.010315179824829,4095,3.0,30.0,5.0
5.022658109664917,4095,3.0,30.0,5.0
5.027895212173462,4095,3.0,30.0,5.0
5.037936210632324,1830,3.0,30.0,5.0
5.054243087768555,4095,3.0,30.0,5.0
5.064326763153076,1712,3.0,30.0,5.0
5.073849678039551,4095,3.0,30.0,5.0
5.083780765533447,22,3.0,30.0,5.0
5.094178676605225,4095,3.0,30.0,5.0
5.104300022125244,2106,3.0,30.0,5.0
5.11388373374939,4095,3.0,30.0,5.0
5.124704122543335,2987,3.0,30.0,5.0
5.134606122970581,4095,3.0,30.0,5.0
5.144690036773682,499,3.0,30.0,5.0
5.154520273208618,4095,3.0,30.0,5.0
5.164735555648804,1358,3.0,30.0,5.0
5.17493200302124,4095,3.0,30.0,5.0
5.1845784187316895,0,3.0,30.0,5.0
5.194406986236572,4095,3.0,30.0,5.0
5.204381227493286,4095,3.0,30.0,5.0
5.21445369720459,3426,3.0,30.0,5.0
5.224322319030762,4095,3.0,30.0,5.0
5.234033107757568,4095,3.0,30.0,5.0
5.244042873382568,4095,3.0,30.0,5.0
5.254245758056641,4095,3.0,30.0,5.0
5.2645440101623535,4095,3.0,30.0,5.0
5.2742955684661865,4095,3.0,30.0,5.0
5.283765554428101,4095,3.0,30.0,5.0
5.294649362564087,4095,3.0,30.0,5.0
5.304382801055908,4095,3.0,30.0,5.0
5.311347246170044,4095,3.0,30.0,5.0
5.322502136230469,4095,3.0,30.0,5.0
5.333490371704102,4095,3.0,30.0,5.0
5.340956926345825,4095,3.0,30.0,5.0
5.354950189590454,4095,3.0,30.0,5.0
5.364467144012451,4095,3.0,30.0,5.0
5.374731063842773,4095,3.0,30.0,5.0
5.381608963012695,4095,3.0,30.0,5.0
5.394287347793579,4095,3.0,30.0,5.0
5.404273271560669,4095,3.0,30.0,5.0
5.407965660095215,4095,3.0,30.0,5.0
5.4242844581604,4095,3.0,30.0,5.0
5.4335033893585205,4095,3.0,30.0,5.0
5.444559812545776,4095,3.0,30.0,5.0
5.454439878463745,4095,3.0,30.0,5.0
5.4645256996154785,4095,3.0,30.0,5.0
5.471642017364502,4095,3.0,30.0,5.0
5.483966588973999,4095,3.0,30.0,5.0
5.493930101394653,4095,3.0,30.0,5.0
5.504441022872925,4095,3.0,30.0,5.0
5.5072901248931885,4095,3.0,30.0,5.0
5.524386167526245,4095,3.0,30.0,5.0
5.533636569976807,4095,3.0,30.0,5.0
5.539707899093628,4095,3.0,30.0,5.0
5.547082185745239,4095,3.0,30.0,5.0
5.557117700576782,4095,3.0,30.0,5.0
5.5700905323028564,4095,3.0,30.0,5.0
5.5801331996917725,4095,3.0,30.0,5.0
5.593050956726074,4095,3.0,30.0,5.0
5.604295015335083,2797,3.0,30.0,5.0
5.614358901977539,2610,3.0,30.0,5.0
5.624397277832031,1248,3.0,30.0,5.0
5.6345179080963135,3039,3.0,30.0,5.0
5.6355133056640625,1599,3.0,30.0,5.0
5.646992921829224,4095,3.0,30.0,5.0
5.65703010559082,1808,3.0,30.0,5.0
5.667030334472656,2337,3.0,30.0,5.0
5.6782026290893555,2312,3.0,30.0,5.0
5.692959547042847,2182,3.0,30.0,5.0
5.704772472381592,2070,3.0,30.0,5.0
5.7087461948394775,1863,3.0,30.0,5.0
5.724505186080933,1861,3.0,30.0,5.0
5.733514070510864,1585,3.0,30.0,5.0
5.738328695297241,1027,3.0,30.0,5.0
5.74652624130249,1423,3.0,30.0,5.0
5.7578043937683105,1200,3.0,30.0,5.0
5.767812728881836,1205,3.0,30.0,5.0
5.779029369354248,1547,3.0,30.0,5.0
5.792767286300659,836,3.0,30.0,5.0
5.80280327796936,1638,3.0,30.0,5.0
5.8128039836883545,764,3.0,30.0,5.0
5.815690755844116,1523,3.0,30.0,5.0
5.825704574584961,528,3.0,30.0,5.0
5.8389294147491455,1275,3.0,30.0,5.0
5.848940134048462,432,3.0,30.0,5.0
5.858940362930298,1142,3.0,30.0,5.0
5.870128154754639,318,3.0,30.0,5.0
5.880170106887817,763,3.0,30.0,5.0
5.890170574188232,2276,3.0,30.0,5.0
5.90355920791626,1520,3.0,30.0,5.0
5.914100885391235,640,3.0,30.0,5.0
5.917208909988403,1533,3.0,30.0,5.0
5.9334399700164795,1115,3.0,30.0,5.0
5.939531087875366,1517,3.0,30.0,5.0
5.954219102859497,521,3.0,30.0,5.0
5.9644293785095215,1472,3.0,30.0,5.0
5.973446607589722,483,3.0,30.0,5.0
5.976768255233765,1328,3.0,30.0,5.0
5.986820936203003,337,3.0,30.0,5.0
5.9968202114105225,1169,3.0,30.0,5.0
6.006820917129517,371,3.0,30.0,5.0
6.01682186126709,992,3.0,30.0,5.0
6.026820421218872,906,3.0,30.0,5.0
6.038496255874634,817,3.0,30.0,5.0
6.054563999176025,214,3.0,30.0,5.0
6.064890384674072,1355,3.0,30.0,5.0
6.065886974334717,848,3.0,30.0,5.0
6.075895547866821,1100,3.0,30.0,5.0
6.085896253585815,1956,3.0,30.0,5.0
6.095895767211914,1087,3.0,30.0,5.0
6.114454030990601,823,3.0,30.0,5.0
6.124298572540283,1023,3.0,30.0,5.0
6.134341239929199,797,3.0,30.0,5.0
6.139737367630005,847,3.0,30.0,5.0
6.154148101806641,2277,3.0,30.0,5.0
6.155200242996216,922,3.0,30.0,5.0
6.166430234909058,675,3.0,30.0,5.0
6.176477432250977,919,3.0,30.0,5.0
6.1880364418029785,608,3.0,30.0,5.0
6.199382305145264,830,3.0,30.0,5.0
6.209418296813965,715,3.0,30.0,5.0
6.220857620239258,816,3.0,30.0,5.0
6.230869770050049,2111,3.0,30.0,5.0
6.243848562240601,736,3.0,30.0,5.0
6.253857851028442,2081,3.0,30.0,5.0
6.2638585567474365,752,3.0,30.0,5.0
6.273859739303589,1805,3.0,30.0,5.0
6.28413987159729,630,3.0,30.0,5.0
6.289001703262329,1440,3.0,30.0,5.0
6.299036026000977,651,3.0,30.0,5.0
6.310266733169556,1340,3.0,30.0,5.0
6.320276260375977,982,3.0,30.0,5.0
6.333934307098389,1232,3.0,30.0,5.0
6.3446946144104,1979,3.0,30.0,5.0
6.353864431381226,1022,3.0,30.0,5.0
6.364182233810425,1670,3.0,30.0,5.0
6.371779441833496,788,3.0,30.0,5.0
6.383020401000977,1379,3.0,30.0,5.0
6.394755840301514,688,3.0,30.0,5.0
6.394755840301514,1456,3.0,30.0,5.0
6.414946794509888,1983,3.0,30.0,5.0
6.42275071144104,1426,3.0,30.0,5.0
6.434400796890259,961,3.0,30.0,5.0
6.444525957107544,1249,3.0,30.0,5.0
6.454517841339111,908,3.0,30.0,5.0
6.464526653289795,1041,3.0,30.0,5.0
6.4745261669158936,799,3.0,30.0,5.0
6.476253271102905,903,3.0,30.0,5.0
6.486256837844849,663,3.0,30.0,5.0
6.497518062591553,655,3.0,30.0,5.0
6.509199619293213,417,3.0,30.0,5.0
6.522340297698975,1925,3.0,30.0,5.0
6.532381534576416,293,3.0,30.0,5.0
6.543827772140503,1645,3.0,30.0,5.0
6.5547895431518555,1306,3.0,30.0,5.0
6.561623573303223,1271,3.0,30.0,5.0
6.573828220367432,2194,3.0,30.0,5.0
6.5818352699279785,1257,3.0,30.0,5.0
6.5884339809417725,1991,3.0,30.0,5.0
6.604588031768799,1223,3.0,30.0,5.0
6.605591297149658,1873,3.0,30.0,5.0
6.616886138916016,1077,3.0,30.0,5.0
6.6269307136535645,1137,3.0,30.0,5.0
6.636929035186768,914,3.0,30.0,5.0
6.646928071975708,1395,3.0,30.0,5.0
6.656927824020386,694,3.0,30.0,5.0
6.66692852973938,1614,3.0,30.0,5.0
6.678494215011597,581,3.0,30.0,5.0
6.688537836074829,1740,3.0,30.0,5.0
6.699932813644409,720,3.0,30.0,5.0
6.709975004196167,2000,3.0,30.0,5.0
6.719974040985107,714,3.0,30.0,5.0
6.73227858543396,2037,3.0,30.0,5.0
6.742322206497192,931,3.0,30.0,5.0
6.754251718521118,2141,3.0,30.0,5.0
6.7646777629852295,1106,3.0,30.0,5.0
6.7742698192596436,2131,3.0,30.0,5.0
6.7796690464019775,1147,3.0,30.0,5.0
6.790549278259277,1618,3.0,30.0,5.0
6.803960561752319,1090,3.0,30.0,5.0
6.814068794250488,1285,3.0,30.0,5.0
6.82219123840332,674,3.0,30.0,5.0
6.832191467285156,1223,3.0,30.0,5.0
6.842191457748413,690,3.0,30.0,5.0
6.852192163467407,1235,3.0,30.0,5.0
6.862191438674927,715,3.0,30.0,5.0
6.872192859649658,1179,3.0,30.0,5.0
6.883698225021362,738,3.0,30.0,5.0
6.889653921127319,1121,3.0,30.0,5.0
6.901075839996338,1294,3.0,30.0,5.0
6.9111175537109375,1310,3.0,30.0,5.0
6.921119451522827,1535,3.0,30.0,5.0
6.934179306030273,1422,3.0,30.0,5.0
6.938347578048706,1776,3.0,30.0,5.0
6.948385238647461,1488,3.0,30.0,5.0
6.960943698883057,1696,3.0,30.0,5.0
6.9740073680877686,1068,3.0,30.0,5.0
6.978363275527954,1609,3.0,30.0,5.0
6.9914305210113525,948,3.0,30.0,5.0
7.0039145946502686,1310,3.0,30.0,5.0
7.014436483383179,429,3.0,30.0,5.0
7.022546291351318,1431,3.0,30.0,5.0
7.034643173217773,1145,3.0,30.0,5.0
7.037714004516602,1603,3.0,30.0,5.0
7.049183130264282,944,3.0,30.0,5.0
7.062206268310547,1488,3.0,30.0,5.0
7.074733018875122,1068,3.0,30.0,5.0
7.084740400314331,1471,3.0,30.0,5.0
7.0947394371032715,1049,3.0,30.0,5.0
7.0947394371032715,1469,3.0,30.0,5.0
7.106021404266357,955,3.0,30.0,5.0
7.116055965423584,1419,3.0,30.0,5.0
7.126056432723999,1005,3.0,30.0,5.0
7.13883376121521,1454,3.0,30.0,5.0
7.148868799209595,1168,3.0,30.0,5.0
7.158869504928589,1577,3.0,30.0,5.0
7.171992301940918,1134,3.0,30.0,5.0
7.204676628112793,1527,3.0,30.0,5.0
7.205413579940796,1182,3.0,30.0,5.0
7.205413579940796,1635,3.0,30.0,5.0
7.21019721031189,1223,3.0,30.0,5.0
7.2203545570373535,1699,3.0,30.0,5.0
7.2317280769348145,1233,3.0,30.0,5.0
7.241737365722656,1574,3.0,30.0,5.0
7.251736640930176,1079,3.0,30.0,5.0
7.261736869812012,1414,3.0,30.0,5.0
7.2728800773620605,942,3.0,30.0,5.0
7.284121036529541,1273,3.0,30.0,5.0
7.294163465499878,813,3.0,30.0,5.0
7.304405212402344,1294,3.0,30.0,5.0
7.305401563644409,737,3.0,30.0,5.0
7.3165178298950195,1289,3.0,30.0,5.0
7.326560974121094,656,3.0,30.0,5.0
7.337794065475464,1360,3.0,30.0,5.0
7.347916841506958,592,3.0,30.0,5.0
7.360344409942627,1342,3.0,30.0,5.0
7.370380640029907,523,3.0,30.0,5.0
7.383782863616943,1360,3.0,30.0,5.0
7.394077301025391,479,3.0,30.0,5.0
7.404624938964844,1347,3.0,30.0,5.0
7.414029836654663,453,3.0,30.0,5.0
7.4215898513793945,1317,3.0,30.0,5.0
7.4296019077301025,485,3.0,30.0,5.0
7.437681674957275,1200,3.0,30.0,5.0
7.454189777374268,550,3.0,30.0,5.0
7.455191373825073,1086,3.0,30.0,5.0
7.465201139450073,598,3.0,30.0,5.0
7.475201606750488,959,3.0,30.0,5.0
7.487754821777344,527,3.0,30.0,5.0
7.5046327114105225,880,3.0,30.0,5.0
7.514645099639893,534,3.0,30.0,5.0
7.524641513824463,807,3.0,30.0,5.0
7.5346457958221436,387,3.0,30.0,5.0
7.5446436405181885,699,3.0,30.0,5.0
7.554639577865601,320,3.0,30.0,5.0
7.557053565979004,716,3.0,30.0,5.0
7.567070007324219,234,3.0,30.0,5.0
7.577082633972168,896,3.0,30.0,5.0
7.593952655792236,202,3.0,30.0,5.0
7.604661703109741,895,3.0,30.0,5.0
7.614261865615845,227,3.0,30.0,5.0
7.621310710906982,871,3.0,30.0,5.0
7.629318714141846,223,3.0,30.0,5.0
7.63892388343811,879,3.0,30.0,5.0
7.648936033248901,130,3.0,30.0,5.0
7.658935070037842,844,3.0,30.0,5.0
7.672102212905884,75,3.0,30.0,5.0
7.682110548019409,739,3.0,30.0,5.0
7.692111253738403,310,3.0,30.0,5.0
7.702125072479248,768,3.0,30.0,5.0
7.714603662490845,2177,3.0,30.0,5.0
7.724630117416382,773,3.0,30.0,5.0
7.734610557556152,114,3.0,30.0,5.0
7.738783121109009,537,3.0,30.0,5.0
7.748790502548218,105,3.0,30.0,5.0
7.758791923522949,603,3.0,30.0,5.0
7.76882004737854,203,3.0,30.0,5.0
7.7787926197052,387,3.0,30.0,5.0
7.788795232772827,181,3.0,30.0,5.0
7.798818111419678,506,3.0,30.0,5.0
7.81351637840271,37,3.0,30.0,5.0
7.822658061981201,522,3.0,30.0,5.0
7.830671072006226,0,3.0,30.0,5.0
7.836923599243164,565,3.0,30.0,5.0
7.85457444190979,0,3.0,30.0,5.0
7.85457444190979,368,3.0,30.0,5.0
7.865396738052368,0,3.0,30.0,5.0
7.875397205352783,569,3.0,30.0,5.0
7.8853981494903564,138,3.0,30.0,5.0
7.895397663116455,471,3.0,30.0,5.0
7.905416488647461,142,3.0,30.0,5.0
7.915397644042969,389,3.0,30.0,5.0
7.925412654876709,231,3.0,30.0,5.0
7.935396909713745,4095,3.0,30.0,5.0
7.945398569107056,112,3.0,30.0,5.0
7.962802886962891,4095,3.0,30.0,5.0
7.972944498062134,185,3.0,30.0,5.0
7.983911991119385,4095,3.0,30.0,5.0
7.994525194168091,144,3.0,30.0,5.0
8.004529476165771,2662,3.0,30.0,5.0
8.014528512954712,91,3.0,30.0,5.0
8.02468991279602,172,3.0,30.0,5.0
8.034535884857178,119,3.0,30.0,5.0
8.039175748825073,67,3.0,30.0,5.0
8.054543256759644,158,3.0,30.0,5.0
8.064573526382446,383,3.0,30.0,5.0
8.072183609008789,1467,3.0,30.0,5.0
8.082193374633789,400,3.0,30.0,5.0
8.092194557189941,828,3.0,30.0,5.0
8.104152202606201,387,3.0,30.0,5.0
8.105148792266846,950,3.0,30.0,5.0
8.116294145584106,382,3.0,30.0,5.0
8.126310110092163,937,3.0,30.0,5.0
8.137666702270508,386,3.0,30.0,5.0
8.148653268814087,4095,3.0,30.0,5.0
8.158653736114502,442,3.0,30.0,5.0
8.171988487243652,4095,3.0,30.0,5.0
8.181995868682861,448,3.0,30.0,5.0
8.191996574401855,4095,3.0,30.0,5.0
8.20199704170227,425,3.0,30.0,5.0
8.214529037475586,454,3.0,30.0,5.0
8.224541902542114,348,3.0,30.0,5.0
8.234655618667603,144,3.0,30.0,5.0
8.243861198425293,384,3.0,30.0,5.0
8.25378704071045,137,3.0,30.0,5.0
8.264792919158936,272,3.0,30.0,5.0
8.271175622940063,0,3.0,30.0,5.0
8.280135154724121,0,3.0,30.0,5.0
8.288055181503296,0,3.0,30.0,5.0
8.298083305358887,36,3.0,30.0,5.0
8.30806565284729,0,3.0,30.0,5.0
8.318065643310547,103,3.0,30.0,5.0
8.330119848251343,0,3.0,30.0,5.0
8.340263366699219,112,3.0,30.0,5.0
8.350282192230225,0,3.0,30.0,5.0
8.360263586044312,135,3.0,30.0,5.0
8.374528884887695,0,3.0,30.0,5.0
8.384541988372803,59,3.0,30.0,5.0
8.394637823104858,0,3.0,30.0,5.0
8.395649671554565,48,3.0,30.0,5.0
8.40566086769104,0,3.0,30.0,5.0
8.415675163269043,538,3.0,30.0,5.0
8.425657033920288,0,3.0,30.0,5.0
8.437015056610107,611,3.0,30.0,5.0
8.454480171203613,0,3.0,30.0,5.0
8.458847284317017,2855,3.0,30.0,5.0
8.474487781524658,0,3.0,30.0,5.0
8.478713512420654,606,3.0,30.0,5.0
8.48836350440979,2551,3.0,30.0,5.0
8.504478454589844,0,3.0,30.0,5.0
8.505477666854858,2632,3.0,30.0,5.0
8.515490293502808,0,3.0,30.0,5.0
8.52549147605896,2761,3.0,30.0,5.0
8.5354905128479,43,3.0,30.0,5.0
8.545491933822632,2640,3.0,30.0,5.0
8.555573463439941,0,3.0,30.0,5.0
8.566548109054565,2833,3.0,30.0,5.0
8.577874183654785,0,3.0,30.0,5.0
8.590468406677246,2804,3.0,30.0,5.0
8.600465536117554,91,3.0,30.0,5.0
8.614517211914062,470,3.0,30.0,5.0
8.624530553817749,609,3.0,30.0,5.0
8.63452959060669,2832,3.0,30.0,5.0
8.6385018825531,718,3.0,30.0,5.0
8.64850902557373,2850,3.0,30.0,5.0
8.664158582687378,934,3.0,30.0,5.0
8.672311305999756,2739,3.0,30.0,5.0
8.681294202804565,3869,3.0,30.0,5.0
8.686757326126099,2630,3.0,30.0,5.0
8.704484701156616,3541,3.0,30.0,5.0
8.714519023895264,2526,3.0,30.0,5.0
8.724547624588013,2207,3.0,30.0,5.0
8.734559535980225,2494,3.0,30.0,5.0
8.737677812576294,663,3.0,30.0,5.0
8.750016450881958,2463,3.0,30.0,5.0
8.760023832321167,129,3.0,30.0,5.0
8.770449876785278,2438,3.0,30.0,5.0
8.784519672393799,0,3.0,30.0,5.0
8.794540643692017,2465,3.0,30.0,5.0
8.804683685302734,16,3.0,30.0,5.0
8.805699110031128,2416,3.0,30.0,5.0
8.815715551376343,0,3.0,30.0,5.0
8.825716018676758,2351,3.0,30.0,5.0
8.835715532302856,0,3.0,30.0,5.0
8.845717191696167,2275,3.0,30.0,5.0
8.855717182159424,0,3.0,30.0,5.0
8.865717649459839,2221,3.0,30.0,5.0
8.883875846862793,0,3.0,30.0,5.0
8.88937759399414,2167,3.0,30.0,5.0
8.903511762619019,0,3.0,30.0,5.0
8.913772821426392,2205,3.0,30.0,5.0
8.921050786972046,0,3.0,30.0,5.0
8.931060552597046,2282,3.0,30.0,5.0
8.944520711898804,16,3.0,30.0,5.0
8.954532384872437,2177,3.0,30.0,5.0
8.96453309059143,16,3.0,30.0,5.0
8.974534034729004,2122,3.0,30.0,5.0
8.984666109085083,5,3.0,30.0,5.0
8.992271184921265,1846,3.0,30.0,5.0
9.002279996871948,16,3.0,30.0,5.0
9.01454782485962,1911,3.0,30.0,5.0
9.024560689926147,0,3.0,30.0,5.0
9.034559965133667,1641,3.0,30.0,5.0
9.044557094573975,16,3.0,30.0,5.0
9.054561138153076,1844,3.0,30.0,5.0
9.06455659866333,0,3.0,30.0,5.0
9.074561357498169,1789,3.0,30.0,5.0
9.08456015586853,0,3.0,30.0,5.0
9.087054014205933,1493,3.0,30.0,5.0
9.104426383972168,0,3.0,30.0,5.0
9.10928726196289,1653,3.0,30.0,5.0
9.123292446136475,0,3.0,30.0,5.0
9.131298542022705,1478,3.0,30.0,5.0
9.13785433769226,0,3.0,30.0,5.0
9.146887302398682,1316,3.0,30.0,5.0
9.15595269203186,267,3.0,30.0,5.0
9.165993690490723,1426,3.0,30.0,5.0
9.175960540771484,2472,3.0,30.0,5.0
9.185959577560425,1380,3.0,30.0,5.0
9.19595980644226,2352,3.0,30.0,5.0
9.205959558486938,1347,3.0,30.0,5.0
9.217298746109009,639,3.0,30.0,5.0
9.227427244186401,1280,3.0,30.0,5.0
9.238460779190063,373,3.0,30.0,5.0
9.248466968536377,1322,3.0,30.0,5.0
9.258467435836792,39,3.0,30.0,5.0
9.26846718788147,1200,3.0,30.0,5.0
9.2845458984375,0,3.0,30.0,5.0
9.294558763504028,1037,3.0,30.0,5.0
9.304558992385864,0,3.0,30.0,5.0
9.305742025375366,822,3.0,30.0,5.0
9.324438095092773,139,3.0,30.0,5.0
9.32898211479187,248,3.0,30.0,5.0
9.339022874832153,2032,3.0,30.0,5.0
9.354572772979736,2306,3.0,30.0,5.0
9.362583875656128,2582,3.0,30.0,5.0
9.37068486213684,2289,3.0,30.0,5.0
9.383991003036499,2283,3.0,30.0,5.0
9.384955167770386,2084,3.0,30.0,5.0
9.394964933395386,1989,3.0,30.0,5.0
9.405982494354248,1834,3.0,30.0,5.0
9.415988445281982,2585,3.0,30.0,5.0
9.425989151000977,1301,3.0,30.0,5.0
9.435988903045654,123,3.0,30.0,5.0
9.44602108001709,1313,3.0,30.0,5.0
9.455989122390747,2377,3.0,30.0,5.0
9.465988636016846,1371,3.0,30.0,5.0
9.475992679595947,2210,3.0,30.0,5.0
9.488407611846924,1053,3.0,30.0,5.0
9.504324197769165,2543,3.0,30.0,5.0
9.505831718444824,640,3.0,30.0,5.0
9.516682386398315,2415,3.0,30.0,5.0
9.533997058868408,2128,3.0,30.0,5.0
9.53989577293396,2161,3.0,30.0,5.0
9.554259061813354,1582,3.0,30.0,5.0
9.562274932861328,2353,3.0,30.0,5.0
9.570998907089233,835,3.0,30.0,5.0
9.581014156341553,2445,3.0,30.0,5.0
9.59315824508667,782,3.0,30.0,5.0
9.603294372558594,2403,3.0,30.0,5.0
9.614526271820068,849,3.0,30.0,5.0
9.624616384506226,2374,3.0,30.0,5.0
9.634613752365112,767,3.0,30.0,5.0
9.638379096984863,2405,3.0,30.0,5.0
9.648386240005493,709,3.0,30.0,5.0
9.658386707305908,2165,3.0,30.0,5.0
9.670687437057495,833,3.0,30.0,5.0
9.681580305099487,2658,3.0,30.0,5.0
9.694533109664917,693,3.0,30.0,5.0
9.70454216003418,2505,3.0,30.0,5.0
9.714556455612183,1968,3.0,30.0,5.0
9.7245454788208,2835,3.0,30.0,5.0
9.72607707977295,1979,3.0,30.0,5.0
9.744101285934448,2665,3.0,30.0,5.0
9.753487825393677,1985,3.0,30.0,5.0
9.764246940612793,2099,3.0,30.0,5.0
9.771180868148804,1943,3.0,30.0,5.0
9.780450820922852,1951,3.0,30.0,5.0
9.788516759872437,1981,3.0,30.0,5.0
9.798527956008911,1641,3.0,30.0,5.0
9.808526992797852,2003,3.0,30.0,5.0
9.818527221679688,1473,3.0,30.0,5.0
9.828527212142944,1951,3.0,30.0,5.0
9.838765859603882,1104,3.0,30.0,5.0
9.849613904953003,1961,3.0,30.0,5.0
9.859612941741943,1021,3.0,30.0,5.0
9.869614362716675,1987,3.0,30.0,5.0
9.879613399505615,899,3.0,30.0,5.0
9.889614582061768,1613,3.0,30.0,5.0
9.89961290359497,1461,3.0,30.0,5.0
9.914557456970215,868,3.0,30.0,5.0
9.924568891525269,1306,3.0,30.0,5.0
9.934567928314209,444,3.0,30.0,5.0
9.944918155670166,791,3.0,30.0,5.0
9.945916414260864,1923,3.0,30.0,5.0
9.964471817016602,2085,3.0,30.0,5.0
9.971253156661987,2125,3.0,30.0,5.0
9.980207443237305,2347,3.0,30.0,5.0
9.987505674362183,1829,3.0,30.0,5.0
10.004150152206421,2105,3.0,30.0,5.0
10.005137920379639,1565,3.0,30.0,5.0
10.024431943893433,1824,3.0,30.0,5.0
10.025937557220459,1377,3.0,30.0,5.0
10.035958528518677,1598,3.0,30.0,5.0
10.045947074890137,1127,3.0,30.0,5.0
10.055951833724976,1360,3.0,30.0,5.0
10.065945863723755,890,3.0,30.0,5.0
10.075946569442749,1392,3.0,30.0,5.0
10.085945844650269,1602,3.0,30.0,5.0
10.1000235080719,1015,3.0,30.0,5.0
10.110038995742798,1412,3.0,30.0,5.0
10.120039463043213,1121,3.0,30.0,5.0
10.13003945350647,1200,3.0,30.0,5.0
10.140039920806885,991,3.0,30.0,5.0
10.150071859359741,931,3.0,30.0,5.0
10.160054683685303,941,3.0,30.0,5.0
10.173724174499512,1616,3.0,30.0,5.0
10.181941986083984,1063,3.0,30.0,5.0
10.189793586730957,1386,3.0,30.0,5.0
10.204124450683594,896,3.0,30.0,5.0
10.212157964706421,1197,3.0,30.0,5.0
10.220838785171509,791,3.0,30.0,5.0
10.232329845428467,1051,3.0,30.0,5.0
10.23734164237976,863,3.0,30.0,5.0
10.247355937957764,1311,3.0,30.0,5.0
10.257349014282227,791,3.0,30.0,5.0
10.267349004745483,1454,3.0,30.0,5.0
10.277348756790161,699,3.0,30.0,5.0
10.287557125091553,1315,3.0,30.0,5.0
10.298464059829712,600,3.0,30.0,5.0
10.30846357345581,1030,3.0,30.0,5.0
10.32053256034851,555,3.0,30.0,5.0
10.331397533416748,1575,3.0,30.0,5.0
10.341399192810059,606,3.0,30.0,5.0
10.353960990905762,1574,3.0,30.0,5.0
10.363983154296875,817,3.0,30.0,5.0
10.374169826507568,1489,3.0,30.0,5.0
10.37516736984253,970,3.0,30.0,5.0
10.394524574279785,1349,3.0,30.0,5.0
10.404631853103638,851,3.0,30.0,5.0
10.413801193237305,1269,3.0,30.0,5.0
10.419763565063477,1976,3.0,30.0,5.0
10.428724527359009,1053,3.0,30.0,5.0
10.438451290130615,2074,3.0,30.0,5.0
10.449504375457764,819,3.0,30.0,5.0
10.464528799057007,2306,3.0,30.0,5.0
10.474541902542114,1134,3.0,30.0,5.0
10.484540939331055,553,3.0,30.0,5.0
10.487236738204956,1091,3.0,30.0,5.0
10.498189210891724,2117,3.0,30.0,5.0
10.508188009262085,1061,3.0,30.0,5.0
10.520297288894653,2099,3.0,30.0,5.0
10.53462839126587,912,3.0,30.0,5.0
10.537290096282959,511,3.0,30.0,5.0
10.547302722930908,1408,3.0,30.0,5.0
10.557303190231323,608,3.0,30.0,5.0
10.567301750183105,1005,3.0,30.0,5.0
10.577301979064941,496,3.0,30.0,5.0
10.58730149269104,1194,3.0,30.0,5.0
10.597301721572876,591,3.0,30.0,5.0
10.614840984344482,1215,3.0,30.0,5.0
10.622044563293457,539,3.0,30.0,5.0
10.630056858062744,1299,3.0,30.0,5.0
10.639709234237671,358,3.0,30.0,5.0
10.654111862182617,1376,3.0,30.0,5.0
10.655109882354736,560,3.0,30.0,5.0
10.66512417793274,1088,3.0,30.0,5.0
10.675124168395996,511,3.0,30.0,5.0
10.687158107757568,1745,3.0,30.0,5.0
10.698086977005005,1822,3.0,30.0,5.0
10.71268606185913,1338,3.0,30.0,5.0
10.722692728042603,1617,3.0,30.0,5.0
10.732692241668701,1437,3.0,30.0,5.0
10.743928670883179,1435,3.0,30.0,5.0
10.75416088104248,1148,3.0,30.0,5.0
10.755163192749023,1406,3.0,30.0,5.0
10.765170335769653,969,3.0,30.0,5.0
10.784547328948975,1349,3.0,30.0,5.0
10.794559240341187,762,3.0,30.0,5.0
10.804753303527832,961,3.0,30.0,5.0
10.804753303527832,1386,3.0,30.0,5.0
10.824164867401123,2115,3.0,30.0,5.0
10.829041719436646,1938,3.0,30.0,5.0
10.838638544082642,1802,3.0,30.0,5.0
10.854308605194092,1819,3.0,30.0,5.0
10.8623366355896,1460,3.0,30.0,5.0
10.870400667190552,1651,3.0,30.0,5.0
10.881356954574585,1456,3.0,30.0,5.0
10.891357183456421,1406,3.0,30.0,5.0
10.904690265655518,1318,3.0,30.0,5.0
10.914025783538818,1189,3.0,30.0,5.0
10.923063039779663,1197,3.0,30.0,5.0
10.932691097259521,1553,3.0,30.0,5.0
10.944848537445068,1328,3.0,30.0,5.0
10.954683303833008,1438,3.0,30.0,5.0
10.958237648010254,1481,3.0,30.0,5.0
10.974793672561646,1381,3.0,30.0,5.0
10.984667778015137,1390,3.0,30.0,5.0
10.9920015335083,1295,3.0,30.0,5.0
11.004019498825073,1709,3.0,30.0,5.0
11.007707118988037,1211,3.0,30.0,5.0
11.023839712142944,1559,3.0,30.0,5.0
11.034362077713013,1680,3.0,30.0,5.0
11.040660619735718,1872,3.0,30.0,5.0
11.054211616516113,1575,3.0,30.0,5.0
11.06470799446106,1453,3.0,30.0,5.0
11.071294784545898,1312,3.0,30.0,5.0
11.079324722290039,1294,3.0,30.0,5.0
11.08732557296753,1304,3.0,30.0,5.0
11.10411548614502,1279,3.0,30.0,5.0
11.114553451538086,1360,3.0,30.0,5.0
11.115551471710205,1303,3.0,30.0,5.0
11.125570058822632,1482,3.0,30.0,5.0
11.13556718826294,1341,3.0,30.0,5.0
11.145569562911987,1339,3.0,30.0,5.0
11.155566930770874,1291,3.0,30.0,5.0
11.16556692123413,1525,3.0,30.0,5.0
11.175567388534546,1643,3.0,30.0,5.0
11.187150955200195,1584,3.0,30.0,5.0
11.198084115982056,2121,3.0,30.0,5.0
11.208091735839844,1415,3.0,30.0,5.0
11.218083381652832,1648,3.0,30.0,5.0
11.228085041046143,1567,3.0,30.0,5.0
11.238096952438354,1850,3.0,30.0,5.0
11.253273725509644,1454,3.0,30.0,5.0
11.258964776992798,1718,3.0,30.0,5.0
11.266979932785034,4095,3.0,30.0,5.0
11.283259153366089,1919,3.0,30.0,5.0
11.294682502746582,4095,3.0,30.0,5.0
11.303204774856567,1695,3.0,30.0,5.0
11.312062740325928,4095,3.0,30.0,5.0
11.320046186447144,1508,3.0,30.0,5.0
11.328073978424072,4095,3.0,30.0,5.0
11.338130474090576,2064,3.0,30.0,5.0
11.349132537841797,4095,3.0,30.0,5.0
11.360228776931763,2167,3.0,30.0,5.0
11.374555110931396,4095,3.0,30.0,5.0
11.38458251953125,2108,3.0,30.0,5.0
11.394565105438232,4095,3.0,30.0,5.0
11.404631614685059,2016,3.0,30.0,5.0
11.405628681182861,4095,3.0,30.0,5.0
11.415635824203491,2225,3.0,30.0,5.0
11.434547662734985,4095,3.0,30.0,5.0
11.444575309753418,1984,3.0,30.0,5.0
11.45464563369751,4095,3.0,30.0,5.0
11.458240270614624,2285,3.0,30.0,5.0
11.470775604248047,4095,3.0,30.0,5.0
11.481806755065918,3039,3.0,30.0,5.0
11.488650560379028,4095,3.0,30.0,5.0
11.502889633178711,2655,3.0,30.0,5.0
11.511859655380249,4095,3.0,30.0,5.0
11.520563840866089,2320,3.0,30.0,5.0
11.531631708145142,4095,3.0,30.0,5.0
11.542515277862549,1770,3.0,30.0,5.0
11.552514553070068,4095,3.0,30.0,5.0
11.56461215019226,1795,3.0,30.0,5.0
11.56944465637207,4095,3.0,30.0,5.0
11.579456806182861,1644,3.0,30.0,5.0
11.589461326599121,4095,3.0,30.0,5.0
11.604654550552368,1344,3.0,30.0,5.0
11.612330436706543,4095,3.0,30.0,5.0
11.624426364898682,1089,3.0,30.0,5.0
11.624426364898682,4095,3.0,30.0,5.0
11.638083934783936,906,3.0,30.0,5.0
11.648605823516846,4095,3.0,30.0,5.0
11.658604145050049,1838,3.0,30.0,5.0
11.673561573028564,4095,3.0,30.0,5.0
11.682872772216797,1802,3.0,30.0,5.0
11.6940176486969,4095,3.0,30.0,5.0
11.70479416847229,1588,3.0,30.0,5.0
11.714730739593506,4095,3.0,30.0,5.0
11.723937034606934,1587,3.0,30.0,5.0
11.733946561813354,4095,3.0,30.0,5.0
11.743006944656372,1575,3.0,30.0,5.0
11.74789834022522,4095,3.0,30.0,5.0
11.764065265655518,1710,3.0,30.0,5.0
11.77345871925354,4095,3.0,30.0,5.0
11.784687995910645,1678,3.0,30.0,5.0
11.786682605743408,4095,3.0,30.0,5.0
11.803942441940308,1602,3.0,30.0,5.0
11.814777612686157,4095,3.0,30.0,5.0
11.82466721534729,1475,3.0,30.0,5.0
11.830504417419434,4095,3.0,30.0,5.0
11.844735860824585,1344,3.0,30.0,5.0
11.854743719100952,4095,3.0,30.0,5.0
11.86474323272705,1197,3.0,30.0,5.0
11.874743461608887,4095,3.0,30.0,5.0
11.884962797164917,1089,3.0,30.0,5.0
11.886956691741943,4095,3.0,30.0,5.0
11.903995752334595,1370,3.0,30.0,5.0
11.910768747329712,4095,3.0,30.0,5.0
11.92408561706543,1525,3.0,30.0,5.0
11.933013200759888,4095,3.0,30.0,5.0
11.944554328918457,1572,3.0,30.0,5.0
11.953927516937256,4095,3.0,30.0,5.0
11.96170163154602,1126,3.0,30.0,5.0
11.97391128540039,4095,3.0,30.0,5.0
11.977298021316528,955,3.0,30.0,5.0
11.992738962173462,4095,3.0,30.0,5.0
12.004095315933228,1063,3.0,30.0,5.0
12.014002323150635,4095,3.0,30.0,5.0
12.024379253387451,1162,3.0,30.0,5.0
12.030904293060303,4095,3.0,30.0,5.0
12.040920972824097,1136,3.0,30.0,5.0
12.048649549484253,4095,3.0,30.0,5.0
12.057982444763184,1180,3.0,30.0,5.0
12.072930335998535,4095,3.0,30.0,5.0
12.077541828155518,1051,3.0,30.0,5.0
12.08886456489563,4095,3.0,30.0,5.0
12.104124546051025,1239,3.0,30.0,5.0
12.10512113571167,4095,3.0,30.0,5.0
12.124646186828613,1356,3.0,30.0,5.0
12.130270004272461,4095,3.0,30.0,5.0
12.139393091201782,1426,3.0,30.0,5.0
12.154185056686401,4095,3.0,30.0,5.0
12.162241220474243,1305,3.0,30.0,5.0
12.171485900878906,4095,3.0,30.0,5.0
12.181543588638306,1392,3.0,30.0,5.0
12.191543817520142,4095,3.0,30.0,5.0
12.201543807983398,1273,3.0,30.0,5.0
12.211543083190918,4095,3.0,30.0,5.0
12.223985195159912,1409,3.0,30.0,5.0
12.233986616134644,4095,3.0,30.0,5.0
12.23498249053955,1401,3.0,30.0,5.0
12.244988441467285,4095,3.0,30.0,5.0
12.254988431930542,1424,3.0,30.0,5.0
12.266538143157959,4095,3.0,30.0,5.0
12.276552677154541,1478,3.0,30.0,5.0
12.286553144454956,4095,3.0,30.0,5.0
12.297888040542603,1493,3.0,30.0,5.0
12.307896614074707,4095,3.0,30.0,5.0
12.317896842956543,1391,3.0,30.0,5.0
12.33030891418457,4095,3.0,30.0,5.0
12.342667579650879,1334,3.0,30.0,5.0
12.35412049293518,4095,3.0,30.0,5.0
12.363129615783691,913,3.0,30.0,5.0
12.374529123306274,4095,3.0,30.0,5.0
12.38254165649414,16,3.0,30.0,5.0
12.390597581863403,245,3.0,30.0,5.0
12.404640913009644,0,3.0,30.0,5.0
12.414654731750488,256,3.0,30.0,5.0
12.420225143432617,17,3.0,30.0,5.0
12.431049346923828,277,3.0,30.0,5.0
12.441048860549927,88,3.0,30.0,5.0
12.454531192779541,334,3.0,30.0,5.0
12.464542150497437,148,3.0,30.0,5.0
12.474687814712524,397,3.0,30.0,5.0
12.475689172744751,162,3.0,30.0,5.0
12.485896825790405,423,3.0,30.0,5.0
12.495903968811035,85,3.0,30.0,5.0
12.505898237228394,2731,3.0,30.0,5.0
12.515897989273071,176,3.0,30.0,5.0
12.527087688446045,4095,3.0,30.0,5.0
12.544106006622314,206,3.0,30.0,5.0
12.554508924484253,2587,3.0,30.0,5.0
12.56349515914917,105,3.0,30.0,5.0
12.569348573684692,430,3.0,30.0,5.0
12.584012269973755,4095,3.0,30.0,5.0
12.587726593017578,4095,3.0,30.0,5.0
12.597736358642578,4095,3.0,30.0,5.0
12.607736349105835,4095,3.0,30.0,5.0
12.617737054824829,4095,3.0,30.0,5.0
12.630000352859497,4095,3.0,30.0,5.0
12.639997959136963,4095,3.0,30.0,5.0
12.654531955718994,4095,3.0,30.0,5.0
12.664546012878418,4095,3.0,30.0,5.0
12.674559831619263,4095,3.0,30.0,5.0
12.68454909324646,4095,3.0,30.0,5.0
12.68678617477417,4095,3.0,30.0,5.0
12.697691917419434,4095,3.0,30.0,5.0
12.707687616348267,4095,3.0,30.0,5.0
12.717686653137207,4095,3.0,30.0,5.0
12.72769045829773,4095,3.0,30.0,5.0
12.737858057022095,4095,3.0,30.0,5.0
12.748812913894653,4095,3.0,30.0,5.0
12.762288808822632,4095,3.0,30.0,5.0
12.773282289505005,4095,3.0,30.0,5.0
12.784186363220215,4095,3.0,30.0,5.0
12.791729211807251,4095,3.0,30.0,5.0
12.803819417953491,4095,3.0,30.0,5.0
12.81422472000122,4095,3.0,30.0,5.0
12.824620485305786,4095,3.0,30.0,5.0
12.825640678405762,4095,3.0,30.0,5.0
12.83769679069519,4095,3.0,30.0,5.0
12.847703695297241,4095,3.0,30.0,5.0
12.857705354690552,4095,3.0,30.0,5.0
12.867703437805176,4095,3.0,30.0,5.0
12.884560346603394,4095,3.0,30.0,5.0
12.893912315368652,4095,3.0,30.0,5.0
12.894931316375732,4095,3.0,30.0,5.0
12.905218839645386,4095,3.0,30.0,5.0
12.91613221168518,4095,3.0,30.0,5.0
12.926132678985596,4095,3.0,30.0,5.0
12.93613076210022,4095,3.0,30.0,5.0
12.954756736755371,4095,3.0,30.0,5.0
12.956730365753174,4095,3.0,30.0,5.0
12.9723539352417,4095,3.0,30.0,5.0
12.984781980514526,4095,3.0,30.0,5.0
12.993858098983765,4095,3.0,30.0,5.0
13.00493574142456,4095,3.0,30.0,5.0
13.005936622619629,4095,3.0,30.0,5.0
13.024272441864014,4095,3.0,30.0,5.0
13.034675359725952,4095,3.0,30.0,5.0
13.040204048156738,4095,3.0,30.0,5.0
13.054433107376099,4095,3.0,30.0,5.0
13.057687044143677,4095,3.0,30.0,5.0
13.072515964508057,4095,3.0,30.0,5.0
13.080525875091553,4095,3.0,30.0,5.0
13.086917400360107,4095,3.0,30.0,5.0
13.104383707046509,4095,3.0,30.0,5.0
13.10589599609375,4095,3.0,30.0,5.0
13.116869688034058,4095,3.0,30.0,5.0
13.126871585845947,4095,3.0,30.0,5.0
13.138899087905884,4095,3.0,30.0,5.0
13.14891266822815,4095,3.0,30.0,5.0
13.158929347991943,4095,3.0,30.0,5.0
13.169281005859375,4095,3.0,30.0,5.0
13.182764530181885,4095,3.0,30.0,5.0
13.194711923599243,4095,3.0,30.0,5.0
13.20443081855774,4095,3.0,30.0,5.0
13.213438749313354,4095,3.0,30.0,5.0
13.21922254562378,4095,3.0,30.0,5.0
13.228200674057007,4095,3.0,30.0,5.0
13.236897706985474,4095,3.0,30.0,5.0
13.246922969818115,4095,3.0,30.0,5.0
13.256913661956787,4095,3.0,30.0,5.0
13.266913652420044,4095,3.0,30.0,5.0
13.276914834976196,4095,3.0,30.0,5.0
13.28724217414856,4095,3.0,30.0,5.0
13.298112869262695,4095,3.0,30.0,5.0
13.31453251838684,4095,3.0,30.0,5.0
13.32454538345337,4095,3.0,30.0,5.0
13.334540843963623,4095,3.0,30.0,5.0
13.344743490219116,4095,3.0,30.0,5.0
13.345742464065552,4095,3.0,30.0,5.0
13.355754613876343,4095,3.0,30.0,5.0
13.365754127502441,4095,3.0,30.0,5.0
13.3768630027771,4095,3.0,30.0,5.0
13.394711971282959,4095,3.0,30.0,5.0
13.404350757598877,4095,3.0,30.0,5.0
13.414383888244629,4095,3.0,30.0,5.0
13.419185400009155,4095,3.0,30.0,5.0
13.428164720535278,4095,3.0,30.0,5.0
13.43691086769104,4095,3.0,30.0,5.0
13.44696307182312,4095,3.0,30.0,5.0
13.45695948600769,4095,3.0,30.0,5.0
13.466963052749634,4095,3.0,30.0,5.0
13.476959228515625,4095,3.0,30.0,5.0
13.488176584243774,4095,3.0,30.0,5.0
13.49818468093872,4095,3.0,30.0,5.0
13.508184671401978,4095,3.0,30.0,5.0
13.518184661865234,4095,3.0,30.0,5.0
13.528194904327393,4095,3.0,30.0,5.0
13.538184404373169,4095,3.0,30.0,5.0
13.550402641296387,4095,3.0,30.0,5.0
13.560415267944336,4095,3.0,30.0,5.0
13.574554204940796,4095,3.0,30.0,5.0
13.58456301689148,4095,3.0,30.0,5.0
13.59456729888916,4095,3.0,30.0,5.0
13.605506181716919,4095,3.0,30.0,5.0
13.613888502120972,4095,3.0,30.0,5.0
13.621366739273071,4095,3.0,30.0,5.0
13.629369735717773,4095,3.0,30.0,5.0
13.643944263458252,4095,3.0,30.0,5.0
13.652469396591187,4095,3.0,30.0,5.0
13.66247010231018,4095,3.0,30.0,5.0
13.6724693775177,4095,3.0,30.0,5.0
13.68246865272522,4095,3.0,30.0,5.0
13.693597078323364,4095,3.0,30.0,5.0
13.703871488571167,4095,3.0,30.0,5.0
13.714486360549927,4095,3.0,30.0,5.0
13.722230911254883,4095,3.0,30.0,5.0
13.731156826019287,4095,3.0,30.0,5.0
13.741172075271606,4095,3.0,30.0,5.0
13.751169919967651,4095,3.0,30.0,5.0
13.764260292053223,4095,3.0,30.0,5.0
13.771577596664429,4095,3.0,30.0,5.0
13.784443140029907,4095,3.0,30.0,5.0
13.793993711471558,4095,3.0,30.0,5.0
13.804139852523804,4095,3.0,30.0,5.0
13.806102752685547,4095,3.0,30.0,5.0
13.823029518127441,4095,3.0,30.0,5.0
13.834716320037842,4095,3.0,30.0,5.0
13.83825397491455,4095,3.0,30.0,5.0
13.854777336120605,4095,3.0,30.0,5.0
13.863837718963623,4095,3.0,30.0,5.0
13.874054908752441,4095,3.0,30.0,5.0
13.878626823425293,4095,3.0,30.0,5.0
13.891284704208374,4095,3.0,30.0,5.0
13.903275489807129,4095,3.0,30.0,5.0
13.913637399673462,4095,3.0,30.0,5.0
13.923637390136719,4095,3.0,30.0,5.0
13.933637380599976,4095,3.0,30.0,5.0
13.943636178970337,4095,3.0,30.0,5.0
13.954784154891968,4095,3.0,30.0,5.0
13.964794158935547,4095,3.0,30.0,5.0
13.974793672561646,4095,3.0,30.0,5.0
13.984793901443481,4095,3.0,30.0,5.0
13.994797945022583,4095,3.0,30.0,5.0
13.99650764465332,4095,3.0,30.0,5.0
14.006515264511108,4095,3.0,30.0,5.0
14.016515493392944,4095,3.0,30.0,5.0
14.029872179031372,4095,3.0,30.0,5.0
14.044905185699463,4095,3.0,30.0,5.0
14.054328680038452,4095,3.0,30.0,5.0
14.064667701721191,4095,3.0,30.0,5.0
14.070386409759521,4095,3.0,30.0,5.0
14.078401803970337,4095,3.0,30.0,5.0
14.092620849609375,4095,3.0,30.0,5.0
14.104665756225586,4095,3.0,30.0,5.0
14.105656147003174,4095,3.0,30.0,5.0
14.121890783309937,4095,3.0,30.0,5.0
14.127491474151611,4095,3.0,30.0,5.0
14.137505054473877,4095,3.0,30.0,5.0
14.149756669998169,4095,3.0,30.0,5.0
14.159771919250488,4095,3.0,30.0,5.0
14.16977071762085,4095,3.0,30.0,5.0
14.18291187286377,4095,3.0,30.0,5.0
14.19295620918274,4095,3.0,30.0,5.0
14.204554080963135,4095,3.0,30.0,5.0
14.214571475982666,4095,3.0,30.0,5.0
14.224567174911499,4095,3.0,30.0,5.0
14.23456597328186,4095,3.0,30.0,5.0
14.244643449783325,4095,3.0,30.0,5.0
14.252455711364746,4095,3.0,30.0,5.0
14.262901306152344,4095,3.0,30.0,5.0
14.271241188049316,4095,3.0,30.0,5.0
14.280521154403687,4095,3.0,30.0,5.0
14.294877529144287,4095,3.0,30.0,5.0
14.303338527679443,4095,3.0,30.0,5.0
14.31434178352356,4095,3.0,30.0,5.0
14.319891691207886,4095,3.0,30.0,5.0
14.331174850463867,4095,3.0,30.0,5.0
14.341194152832031,4095,3.0,30.0,5.0
14.351208686828613,4095,3.0,30.0,5.0
14.361193895339966,4095,3.0,30.0,5.0
14.3722665309906,4095,3.0,30.0,5.0
14.384442567825317,4095,3.0,30.0,5.0
14.386468648910522,4095,3.0,30.0,5.0
14.3973228931427,4095,3.0,30.0,5.0
14.407323122024536,4095,3.0,30.0,5.0
14.417322874069214,4095,3.0,30.0,5.0
14.428617715835571,4095,3.0,30.0,5.0
14.438624620437622,4095,3.0,30.0,5.0
14.452427387237549,4095,3.0,30.0,5.0
14.46389651298523,4095,3.0,30.0,5.0
14.474525213241577,4095,3.0,30.0,5.0
14.48253583908081,4095,3.0,30.0,5.0
14.487056732177734,4095,3.0,30.0,5.0
14.504131317138672,4095,3.0,30.0,5.0
14.514485597610474,4095,3.0,30.0,5.0
14.524513006210327,3388,3.0,30.0,5.0
14.534520864486694,4095,3.0,30.0,5.0
14.53734564781189,4095,3.0,30.0,5.0
14.547354221343994,4095,3.0,30.0,5.0
14.55735468864441,4095,3.0,30.0,5.0
14.567353248596191,4095,3.0,30.0,5.0
14.577353954315186,2974,3.0,30.0,5.0
14.588398218154907,4095,3.0,30.0,5.0
14.598395586013794,1817,3.0,30.0,5.0
14.608397960662842,4095,3.0,30.0,5.0
14.618404626846313,1801,3.0,30.0,5.0
14.63457441329956,4095,3.0,30.0,5.0
14.636080265045166,1521,3.0,30.0,5.0
14.64609146118164,4095,3.0,30.0,5.0
14.660891771316528,1342,3.0,30.0,5.0
14.673386335372925,4095,3.0,30.0,5.0
14.68139934539795,1705,3.0,30.0,5.0
14.687021255493164,4095,3.0,30.0,5.0
14.703502893447876,3137,3.0,30.0,5.0
14.712621688842773,4095,3.0,30.0,5.0
14.721607446670532,4095,3.0,30.0,5.0
14.734556913375854,4095,3.0,30.0,5.0
14.7445707321167,4095,3.0,30.0,5.0
14.754644393920898,4095,3.0,30.0,5.0
14.75564169883728,4095,3.0,30.0,5.0
14.765649318695068,4095,3.0,30.0,5.0
14.775649309158325,4095,3.0,30.0,5.0
14.785648345947266,4095,3.0,30.0,5.0
14.797183275222778,4095,3.0,30.0,5.0
14.80808973312378,4095,3.0,30.0,5.0
14.818090438842773,4095,3.0,30.0,5.0
14.828104496002197,4095,3.0,30.0,5.0
14.839112758636475,4095,3.0,30.0,5.0
14.850117206573486,4095,3.0,30.0,5.0
14.860090255737305,4095,3.0,30.0,5.0
14.870094537734985,4095,3.0,30.0,5.0
14.883777618408203,4095,3.0,30.0,5.0
14.894556999206543,4095,3.0,30.0,5.0
14.904435873031616,4095,3.0,30.0,5.0
14.914497137069702,4095,3.0,30.0,5.0
14.920181035995483,2767,3.0,30.0,5.0
14.928197860717773,4095,3.0,30.0,5.0
14.93626093864441,2728,3.0,30.0,5.0
14.947245359420776,4095,3.0,30.0,5.0
14.96082615852356,3292,3.0,30.0,5.0
14.972053050994873,4095,3.0,30.0,5.0
14.982064723968506,2061,3.0,30.0,5.0
14.992060661315918,4095,3.0,30.0,5.0
15.002058982849121,2286,3.0,30.0,5.0
15.012060642242432,4095,3.0,30.0,5.0
15.024527072906494,858,3.0,30.0,5.0
15.034538507461548,4095,3.0,30.0,5.0
15.044536113739014,390,3.0,30.0,5.0
15.054563522338867,4095,3.0,30.0,5.0
15.064566135406494,4095,3.0,30.0,5.0
15.07453989982605,4095,3.0,30.0,5.0
15.084542274475098,4095,3.0,30.0,5.0
15.0946626663208,4095,3.0,30.0,5.0
15.104768991470337,2967,3.0,30.0,5.0
15.107030153274536,4095,3.0,30.0,5.0
15.122308492660522,1614,3.0,30.0,5.0
15.130318880081177,4095,3.0,30.0,5.0
15.144758462905884,1284,3.0,30.0,5.0
15.151761531829834,4095,3.0,30.0,5.0
15.164527893066406,1159,3.0,30.0,5.0
15.174540519714355,4095,3.0,30.0,5.0
15.184940814971924,1395,3.0,30.0,5.0
15.185941219329834,4095,3.0,30.0,5.0
15.195955514907837,1653,3.0,30.0,5.0
15.205970525741577,4095,3.0,30.0,5.0
15.21595573425293,1395,3.0,30.0,5.0
15.225955963134766,4095,3.0,30.0,5.0
15.235955715179443,911,3.0,30.0,5.0
15.245956897735596,4095,3.0,30.0,5.0
15.255955934524536,1787,3.0,30.0,5.0
15.265955448150635,400,3.0,30.0,5.0
15.275956392288208,425,3.0,30.0,5.0
15.285955429077148,253,3.0,30.0,5.0
15.304668426513672,231,3.0,30.0,5.0
15.307727813720703,195,3.0,30.0,5.0
15.324527263641357,749,3.0,30.0,5.0
15.332550048828125,148,3.0,30.0,5.0
15.34186601638794,2217,3.0,30.0,5.0
15.354143857955933,72,3.0,30.0,5.0
15.36441159248352,2165,3.0,30.0,5.0
15.365408420562744,65,3.0,30.0,5.0
15.37544846534729,1641,3.0,30.0,5.0
15.386755228042603,2456,3.0,30.0,5.0
15.396880149841309,1267,3.0,30.0,5.0
15.414490938186646,2315,3.0,30.0,5.0
15.415487289428711,1392,3.0,30.0,5.0
15.42673659324646,2193,3.0,30.0,5.0
15.436747312545776,1402,3.0,30.0,5.0
15.446742296218872,1744,3.0,30.0,5.0
15.456742525100708,1152,3.0,30.0,5.0
15.466742515563965,1278,3.0,30.0,5.0
15.47674298286438,976,3.0,30.0,5.0
15.491018533706665,1617,3.0,30.0,5.0
15.502904891967773,752,3.0,30.0,5.0
15.513898611068726,1867,3.0,30.0,5.0
15.524585723876953,523,3.0,30.0,5.0
15.525584936141968,1962,3.0,30.0,5.0
15.539509296417236,682,3.0,30.0,5.0
15.554626941680908,2148,3.0,30.0,5.0
15.562633514404297,1121,3.0,30.0,5.0
15.574733972549438,2135,3.0,30.0,5.0
15.584741592407227,791,3.0,30.0,5.0
15.594756126403809,2234,3.0,30.0,5.0
15.605091094970703,546,3.0,30.0,5.0
15.606085777282715,2109,3.0,30.0,5.0
15.616121292114258,1335,3.0,30.0,5.0
15.626121520996094,1653,3.0,30.0,5.0
15.636122226715088,1776,3.0,30.0,5.0
15.646121263504028,1296,3.0,30.0,5.0
15.663597822189331,1854,3.0,30.0,5.0
15.673975944519043,1243,3.0,30.0,5.0
15.675968647003174,2035,3.0,30.0,5.0
15.686005592346191,1098,3.0,30.0,5.0
15.69600510597229,2017,3.0,30.0,5.0
15.706005811691284,816,3.0,30.0,5.0
15.724551916122437,1926,3.0,30.0,5.0
15.726019382476807,653,3.0,30.0,5.0
15.744721412658691,1547,3.0,30.0,5.0
15.754361391067505,742,3.0,30.0,5.0
15.762575387954712,1798,3.0,30.0,5.0
15.770228862762451,653,3.0,30.0,5.0
15.778368711471558,1738,3.0,30.0,5.0
15.786436319351196,676,3.0,30.0,5.0
15.804628372192383,1695,3.0,30.0,5.0
15.814178943634033,531,3.0,30.0,5.0
15.81517744064331,1613,3.0,30.0,5.0
15.82644510269165,414,3.0,30.0,5.0
15.837547779083252,1457,3.0,30.0,5.0
15.848872184753418,348,3.0,30.0,5.0
15.858914852142334,1488,3.0,30.0,5.0
15.868913888931274,281,3.0,30.0,5.0
15.884535312652588,1419,3.0,30.0,5.0
15.894547462463379,358,3.0,30.0,5.0
15.904733657836914,1232,3.0,30.0,5.0
15.905739068984985,425,3.0,30.0,5.0
15.915746927261353,1059,3.0,30.0,5.0
15.934440851211548,423,3.0,30.0,5.0
15.938992738723755,959,3.0,30.0,5.0
15.954505443572998,448,3.0,30.0,5.0
15.963488101959229,1086,3.0,30.0,5.0
15.970729351043701,406,3.0,30.0,5.0
15.980764389038086,1173,3.0,30.0,5.0
15.994556188583374,711,3.0,30.0,5.0
16.004570484161377,1212,3.0,30.0,5.0
16.01456880569458,822,3.0,30.0,5.0
16.02458691596985,1245,3.0,30.0,5.0
16.034775495529175,942,3.0,30.0,5.0
16.03577446937561,1243,3.0,30.0,5.0
16.054553747177124,1008,3.0,30.0,5.0
16.06456685066223,1281,3.0,30.0,5.0
16.074568033218384,943,3.0,30.0,5.0
16.084563732147217,1165,3.0,30.0,5.0
16.094566345214844,775,3.0,30.0,5.0
16.10456657409668,966,3.0,30.0,5.0
16.105905532836914,624,3.0,30.0,5.0
16.115912914276123,835,3.0,30.0,5.0
16.125914335250854,506,3.0,30.0,5.0
16.13592767715454,778,3.0,30.0,5.0
16.154240131378174,402,3.0,30.0,5.0
16.15774965286255,771,3.0,30.0,5.0
16.174389839172363,316,3.0,30.0,5.0
16.18405818939209,859,3.0,30.0,5.0
16.194661378860474,235,3.0,30.0,5.0
16.202711820602417,906,3.0,30.0,5.0
16.2149076461792,158,3.0,30.0,5.0
16.2149076461792,925,3.0,30.0,5.0
16.224918365478516,221,3.0,30.0,5.0
16.2361478805542,951,3.0,30.0,5.0
16.247092962265015,409,3.0,30.0,5.0
16.25709342956543,838,3.0,30.0,5.0
16.269431352615356,355,3.0,30.0,5.0
16.280317306518555,981,3.0,30.0,5.0
16.290321111679077,323,3.0,30.0,5.0
16.302685976028442,871,3.0,30.0,5.0
16.31269145011902,0,3.0,30.0,5.0
16.322692155838013,784,3.0,30.0,5.0
16.332691431045532,397,3.0,30.0,5.0
16.342692136764526,671,3.0,30.0,5.0
16.352697372436523,415,3.0,30.0,5.0
16.364054679870605,599,3.0,30.0,5.0
16.37423324584961,315,3.0,30.0,5.0
16.376381397247314,499,3.0,30.0,5.0
16.387784481048584,208,3.0,30.0,5.0
16.4029643535614,416,3.0,30.0,5.0
16.410980701446533,46,3.0,30.0,5.0
16.419591426849365,432,3.0,30.0,5.0
16.429710626602173,116,3.0,30.0,5.0
16.444706916809082,409,3.0,30.0,5.0
16.45471477508545,110,3.0,30.0,5.0
16.464714288711548,499,3.0,30.0,5.0
16.474714279174805,62,3.0,30.0,5.0
16.484713792800903,501,3.0,30.0,5.0
16.494713306427002,16,3.0,30.0,5.0
16.49703598022461,557,3.0,30.0,5.0
16.507071256637573,0,3.0,30.0,5.0
16.517070531845093,613,3.0,30.0,5.0
16.527071952819824,141,3.0,30.0,5.0
16.53815269470215,680,3.0,30.0,5.0
16.54818844795227,11,3.0,30.0,5.0
16.558189630508423,697,3.0,30.0,5.0
16.574579000473022,68,3.0,30.0,5.0
16.579973697662354,528,3.0,30.0,5.0
16.588341236114502,0,3.0,30.0,5.0
16.602927207946777,400,3.0,30.0,5.0
16.610971927642822,0,3.0,30.0,5.0
16.619575023651123,365,3.0,30.0,5.0
16.629586219787598,0,3.0,30.0,5.0
16.639586448669434,503,3.0,30.0,5.0
16.654707431793213,0,3.0,30.0,5.0
16.665056467056274,522,3.0,30.0,5.0
16.66704773902893,0,3.0,30.0,5.0
16.684038400650024,499,3.0,30.0,5.0
16.694356203079224,0,3.0,30.0,5.0
16.696348190307617,445,3.0,30.0,5.0
16.70637536048889,0,3.0,30.0,5.0
16.71936297416687,576,3.0,30.0,5.0
16.729485988616943,0,3.0,30.0,5.0
16.744370937347412,578,3.0,30.0,5.0
16.745369911193848,15,3.0,30.0,5.0
16.755775213241577,511,3.0,30.0,5.0
16.765774965286255,27,3.0,30.0,5.0
16.784685611724854,553,3.0,30.0,5.0
16.787484407424927,93,3.0,30.0,5.0
16.804624795913696,511,3.0,30.0,5.0
16.8136465549469,123,3.0,30.0,5.0
16.819581031799316,487,3.0,30.0,5.0
16.829595804214478,52,3.0,30.0,5.0
16.844558715820312,432,3.0,30.0,5.0
16.854570388793945,1,3.0,30.0,5.0
16.86457371711731,372,3.0,30.0,5.0
16.86854600906372,0,3.0,30.0,5.0
16.878557682037354,315,3.0,30.0,5.0
16.88855814933777,0,3.0,30.0,5.0
16.904553174972534,277,3.0,30.0,5.0
16.914564609527588,0,3.0,30.0,5.0
16.924562692642212,266,3.0,30.0,5.0
16.934564352035522,0,3.0,30.0,5.0
16.935682773590088,226,3.0,30.0,5.0
16.945698261260986,0,3.0,30.0,5.0
16.957855224609375,300,3.0,30.0,5.0
16.9678635597229,0,3.0,30.0,5.0
16.97788119316101,208,3.0,30.0,5.0
16.987863063812256,0,3.0,30.0,5.0
17.004663705825806,257,3.0,30.0,5.0
17.010913133621216,0,3.0,30.0,5.0
17.024526596069336,262,3.0,30.0,5.0
17.03165555000305,0,3.0,30.0,5.0
17.044496297836304,283,3.0,30.0,5.0
17.05282759666443,0,3.0,30.0,5.0
17.06376314163208,299,3.0,30.0,5.0
17.073824644088745,586,3.0,30.0,5.0
17.080042362213135,308,3.0,30.0,5.0
17.090054512023926,2262,3.0,30.0,5.0
17.100056648254395,263,3.0,30.0,5.0
17.110055446624756,2559,3.0,30.0,5.0
17.12108087539673,176,3.0,30.0,5.0
17.13455629348755,2768,3.0,30.0,5.0
17.14456534385681,1678,3.0,30.0,5.0
17.154568672180176,2766,3.0,30.0,5.0
17.164578199386597,2320,3.0,30.0,5.0
17.174569845199585,2698,3.0,30.0,5.0
17.184881925582886,2288,3.0,30.0,5.0
17.19285750389099,2697,3.0,30.0,5.0
17.20439863204956,2283,3.0,30.0,5.0
17.205385446548462,2672,3.0,30.0,5.0
17.2234890460968,2250,3.0,30.0,5.0
17.23421859741211,2366,3.0,30.0,5.0
17.24437379837036,2246,3.0,30.0,5.0
17.254035711288452,2445,3.0,30.0,5.0
17.264525175094604,2223,3.0,30.0,5.0
17.26973271369934,638,3.0,30.0,5.0
17.277745962142944,272,3.0,30.0,5.0
17.286792755126953,0,3.0,30.0,5.0
17.296798944473267,170,3.0,30.0,5.0
17.308164358139038,0,3.0,30.0,5.0
17.318213939666748,85,3.0,30.0,5.0
17.32818865776062,2799,3.0,30.0,5.0
17.33818244934082,2043,3.0,30.0,5.0
17.348180294036865,2714,3.0,30.0,5.0
17.358182191848755,2271,3.0,30.0,5.0
17.36818027496338,2514,3.0,30.0,5.0
17.37953472137451,2043,3.0,30.0,5.0
17.389540195465088,2303,3.0,30.0,5.0
17.399540424346924,1856,3.0,30.0,5.0
17.4095401763916,2097,3.0,30.0,5.0
17.419609308242798,1648,3.0,30.0,5.0
17.430572509765625,1968,3.0,30.0,5.0
17.442891120910645,1670,3.0,30.0,5.0
17.454118251800537,901,3.0,30.0,5.0
17.462214946746826,1605,3.0,30.0,5.0
17.46841597557068,1722,3.0,30.0,5.0
17.477400064468384,1302,3.0,30.0,5.0
17.486085176467896,2039,3.0,30.0,5.0
17.49611496925354,1520,3.0,30.0,5.0
17.506115436553955,2160,3.0,30.0,5.0
17.516114950180054,1760,3.0,30.0,5.0
17.526123046875,1821,3.0,30.0,5.0
17.53611731529236,1510,3.0,30.0,5.0
17.546145915985107,1669,3.0,30.0,5.0
17.55611515045166,1247,3.0,30.0,5.0
17.566118478775024,1551,3.0,30.0,5.0
17.57611632347107,1254,3.0,30.0,5.0
17.58718228340149,1248,3.0,30.0,5.0
17.598128080368042,934,3.0,30.0,5.0
17.608128786087036,1206,3.0,30.0,5.0
17.61812949180603,825,3.0,30.0,5.0
17.62812829017639,1189,3.0,30.0,5.0
17.63812828063965,752,3.0,30.0,5.0
17.64812922477722,1155,3.0,30.0,5.0
17.663869380950928,810,3.0,30.0,5.0
17.671058654785156,1231,3.0,30.0,5.0
17.679070234298706,832,3.0,30.0,5.0
17.68948459625244,1090,3.0,30.0,5.0
17.70299983024597,807,3.0,30.0,5.0
17.70667552947998,1076,3.0,30.0,5.0
17.724531650543213,751,3.0,30.0,5.0
17.73454451560974,1137,3.0,30.0,5.0
17.744544744491577,643,3.0,30.0,5.0
17.75455665588379,1173,3.0,30.0,5.0
17.764554977416992,653,3.0,30.0,5.0
17.77456569671631,1200,3.0,30.0,5.0
17.784544229507446,704,3.0,30.0,5.0
17.786758422851562,1219,3.0,30.0,5.0
17.79676604270935,642,3.0,30.0,5.0
17.806767225265503,1160,3.0,30.0,5.0
17.819161653518677,659,3.0,30.0,5.0
17.83003258705139,1149,3.0,30.0,5.0
17.840033054351807,686,3.0,30.0,5.0
17.8500337600708,1007,3.0,30.0,5.0
17.86004066467285,594,3.0,30.0,5.0
17.870041847229004,1094,3.0,30.0,5.0
17.883492469787598,545,3.0,30.0,5.0
17.89250612258911,953,3.0,30.0,5.0
17.904302835464478,496,3.0,30.0,5.0
17.912349462509155,930,3.0,30.0,5.0
17.918628931045532,558,3.0,30.0,5.0
17.92750597000122,868,3.0,30.0,5.0
17.944859266281128,546,3.0,30.0,5.0
17.945858001708984,1002,3.0,30.0,5.0
17.95724058151245,592,3.0,30.0,5.0
17.967275142669678,789,3.0,30.0,5.0
17.977256298065186,544,3.0,30.0,5.0
17.987271070480347,809,3.0,30.0,5.0
17.99725580215454,621,3.0,30.0,5.0
18.007256031036377,1686,3.0,30.0,5.0
18.017255783081055,626,3.0,30.0,5.0
18.034562826156616,1514,3.0,30.0,5.0
18.044576406478882,602,3.0,30.0,5.0
18.05457592010498,1070,3.0,30.0,5.0
18.064836978912354,486,3.0,30.0,5.0
18.06583309173584,1597,3.0,30.0,5.0
18.075844049453735,438,3.0,30.0,5.0
18.093962907791138,1637,3.0,30.0,5.0
18.10294270515442,467,3.0,30.0,5.0
18.111910820007324,1494,3.0,30.0,5.0
18.11831498146057,1141,3.0,30.0,5.0
18.13507866859436,1296,3.0,30.0,5.0
18.13608193397522,2130,3.0,30.0,5.0
18.154723405838013,1182,3.0,30.0,5.0
18.164772987365723,2078,3.0,30.0,5.0
18.174731016159058,910,3.0,30.0,5.0
18.1847722530365,981,3.0,30.0,5.0
18.194730520248413,1657,3.0,30.0,5.0
18.204730987548828,801,3.0,30.0,5.0
18.214897632598877,1426,3.0,30.0,5.0
18.224085330963135,1070,3.0,30.0,5.0
18.2263400554657,1317,3.0,30.0,5.0
18.235816955566406,1426,3.0,30.0,5.0
18.24599838256836,980,3.0,30.0,5.0
18.255997896194458,1510,3.0,30.0,5.0
18.274399757385254,618,3.0,30.0,5.0
18.27749276161194,1251,3.0,30.0,5.0
18.28750228881836,775,3.0,30.0,5.0
18.303765296936035,1552,3.0,30.0,5.0
18.30967950820923,0,3.0,30.0,5.0
18.322036027908325,4095,3.0,30.0,5.0
18.334981441497803,969,3.0,30.0,5.0
18.34443426132202,4095,3.0,30.0,5.0
18.352600574493408,4095,3.0,30.0,5.0
18.364687204360962,4095,3.0,30.0,5.0
18.374693393707275,4095,3.0,30.0,5.0
18.385261297225952,4095,3.0,30.0,5.0
18.386257886886597,4095,3.0,30.0,5.0
18.396301984786987,4095,3.0,30.0,5.0
18.40665578842163,4095,3.0,30.0,5.0
18.41895890235901,4095,3.0,30.0,5.0
18.4289767742157,2061,3.0,30.0,5.0
18.43897533416748,4095,3.0,30.0,5.0
18.448975563049316,1365,3.0,30.0,5.0
18.458975791931152,4095,3.0,30.0,5.0
18.47452688217163,2494,3.0,30.0,5.0
18.484537839889526,2224,3.0,30.0,5.0
18.486708879470825,727,3.0,30.0,5.0
18.496715307235718,1438,3.0,30.0,5.0
18.514241695404053,1084,3.0,30.0,5.0
18.520586252212524,2239,3.0,30.0,5.0
18.528615951538086,2878,3.0,30.0,5.0
18.5383083820343,4095,3.0,30.0,5.0
18.554524421691895,2170,3.0,30.0,5.0
18.56456232070923,4095,3.0,30.0,5.0
18.57453680038452,1354,3.0,30.0,5.0
18.584534883499146,4095,3.0,30.0,5.0
18.594533681869507,195,3.0,30.0,5.0
18.604729652404785,4095,3.0,30.0,5.0
18.614739179611206,485,3.0,30.0,5.0
18.62473964691162,4095,3.0,30.0,5.0
18.63473916053772,1562,3.0,30.0,5.0
18.64455533027649,4095,3.0,30.0,5.0
18.65456461906433,120,3.0,30.0,5.0
18.66472816467285,521,3.0,30.0,5.0
18.674737215042114,251,3.0,30.0,5.0
18.684736490249634,560,3.0,30.0,5.0
18.69473934173584,289,3.0,30.0,5.0
18.704739332199097,494,3.0,30.0,5.0
18.713871002197266,281,3.0,30.0,5.0
18.714869022369385,454,3.0,30.0,5.0
18.734612464904785,238,3.0,30.0,5.0
18.740926265716553,1743,3.0,30.0,5.0
18.754889726638794,2215,3.0,30.0,5.0
18.7638897895813,1818,3.0,30.0,5.0
18.769440412521362,1909,3.0,30.0,5.0
18.77745485305786,4095,3.0,30.0,5.0
18.786510944366455,1625,3.0,30.0,5.0
18.796518564224243,4095,3.0,30.0,5.0
18.808265686035156,4095,3.0,30.0,5.0
18.824694395065308,4095,3.0,30.0,5.0
18.83387279510498,1134,3.0,30.0,5.0
18.83487033843994,4095,3.0,30.0,5.0
18.854751586914062,832,3.0,30.0,5.0
18.86369776725769,4095,3.0,30.0,5.0
18.866381883621216,1519,3.0,30.0,5.0
18.877309799194336,4095,3.0,30.0,5.0
18.886656522750854,2384,3.0,30.0,5.0
18.904728889465332,4095,3.0,30.0,5.0
18.91473889350891,4095,3.0,30.0,5.0
18.924689531326294,4095,3.0,30.0,5.0
18.93389868736267,4095,3.0,30.0,5.0
18.93489670753479,4095,3.0,30.0,5.0
18.954617738723755,4095,3.0,30.0,5.0
18.964719772338867,4095,3.0,30.0,5.0
18.974682092666626,4095,3.0,30.0,5.0
18.9848849773407,4095,3.0,30.0,5.0
18.994746923446655,1731,3.0,30.0,5.0
19.00379705429077,4095,3.0,30.0,5.0
19.014818906784058,783,3.0,30.0,5.0
19.023834228515625,4095,3.0,30.0,5.0
19.034729719161987,861,3.0,30.0,5.0
19.04474115371704,4095,3.0,30.0,5.0
19.053853511810303,1047,3.0,30.0,5.0
19.06467366218567,4095,3.0,30.0,5.0
19.07385778427124,1971,3.0,30.0,5.0
19.08487629890442,4095,3.0,30.0,5.0
19.08487629890442,891,3.0,30.0,5.0
19.104708194732666,4095,3.0,30.0,5.0
19.113842010498047,4095,3.0,30.0,5.0
19.12387204170227,4095,3.0,30.0,5.0
19.1348557472229,4095,3.0,30.0,5.0
19.1348557472229,4095,3.0,30.0,5.0
19.154725074768066,4095,3.0,30.0,5.0
19.16436505317688,4095,3.0,30.0,5.0
19.17139172554016,4095,3.0,30.0,5.0
19.185067653656006,4095,3.0,30.0,5.0
19.1877338886261,4095,3.0,30.0,5.0
19.20482897758484,4095,3.0,30.0,5.0
19.21485161781311,4095,3.0,30.0,5.0
19.224862098693848,4095,3.0,30.0,5.0
19.234614610671997,4095,3.0,30.0,5.0
19.244131088256836,3974,3.0,30.0,5.0
19.25387406349182,4095,3.0,30.0,5.0
19.264886140823364,499,3.0,30.0,5.0
19.274842739105225,4095,3.0,30.0,5.0
19.284692764282227,811,3.0,30.0,5.0
19.284692764282227,4095,3.0,30.0,5.0
19.304706811904907,4095,3.0,30.0,5.0
19.313857555389404,4095,3.0,30.0,5.0
19.32468056678772,4095,3.0,30.0,5.0
19.334668159484863,4095,3.0,30.0,5.0
19.335766553878784,4095,3.0,30.0,5.0
19.353858947753906,4095,3.0,30.0,5.0
19.36368465423584,4095,3.0,30.0,5.0
19.374109506607056,4095,3.0,30.0,5.0
19.38494372367859,4095,3.0,30.0,5.0
19.388171434402466,4095,3.0,30.0,5.0
19.404911518096924,383,3.0,30.0,5.0
19.41486930847168,4095,3.0,30.0,5.0
19.42440891265869,67,3.0,30.0,5.0
19.434879779815674,4095,3.0,30.0,5.0
19.434879779815674,0,3.0,30.0,5.0
19.4538254737854,4095,3.0,30.0,5.0
19.4538254737854,0,3.0,30.0,5.0
19.47490906715393,4095,3.0,30.0,5.0
19.484925746917725,3359,3.0,30.0,5.0
19.49493408203125,4095,3.0,30.0,5.0
19.50487732887268,4095,3.0,30.0,5.0
19.51492691040039,4095,3.0,30.0,5.0
19.52493906021118,1911,3.0,30.0,5.0
19.533930778503418,4095,3.0,30.0,5.0
19.54493284225464,4095,3.0,30.0,5.0
19.55491304397583,4095,3.0,30.0,5.0
19.564900398254395,4095,3.0,30.0,5.0
19.573914051055908,4095,3.0,30.0,5.0
19.58466076850891,4095,3.0,30.0,5.0
19.594634532928467,4095,3.0,30.0,5.0
19.604732751846313,4095,3.0,30.0,5.0
19.61387801170349,4095,3.0,30.0,5.0
19.619023084640503,4095,3.0,30.0,5.0
19.633853435516357,4095,3.0,30.0,5.0
19.64504098892212,4095,3.0,30.0,5.0
19.654842615127563,4095,3.0,30.0,5.0
19.66392946243286,4095,3.0,30.0,5.0
19.673885345458984,4095,3.0,30.0,5.0
19.684884786605835,4095,3.0,30.0,5.0
19.694893836975098,4095,3.0,30.0,5.0
19.70486330986023,4095,3.0,30.0,5.0
19.71512746810913,4095,3.0,30.0,5.0
19.724943161010742,4095,3.0,30.0,5.0
19.73494005203247,4095,3.0,30.0,5.0
19.745125770568848,4095,3.0,30.0,5.0
19.754573345184326,4095,3.0,30.0,5.0
19.7638840675354,4095,3.0,30.0,5.0
19.774919033050537,4095,3.0,30.0,5.0
19.783922910690308,4095,3.0,30.0,5.0
19.794513463974,4095,3.0,30.0,5.0
19.8037588596344,64,3.0,30.0,5.0
19.813861846923828,4095,3.0,30.0,5.0
19.823883533477783,49,3.0,30.0,5.0
19.834948778152466,4095,3.0,30.0,5.0
19.836924076080322,0,3.0,30.0,5.0
19.853829622268677,4095,3.0,30.0,5.0
19.854827404022217,0,3.0,30.0,5.0
19.873826026916504,4095,3.0,30.0,5.0
19.88469171524048,4095,3.0,30.0,5.0
19.89470100402832,4095,3.0,30.0,5.0
19.903822898864746,4095,3.0,30.0,5.0
19.913819789886475,4095,3.0,30.0,5.0
19.923872470855713,4095,3.0,30.0,5.0
19.93382477760315,3611,3.0,30.0,5.0
19.93938374519348,4095,3.0,30.0,5.0
19.953892469406128,1963,3.0,30.0,5.0
19.964781284332275,4095,3.0,30.0,5.0
19.973829746246338,1476,3.0,30.0,5.0
19.984690189361572,4095,3.0,30.0,5.0
19.994702339172363,1148,3.0,30.0,5.0
20.003483295440674,4095,3.0,30.0,5.0
20.0134859085083,1041,3.0,30.0,5.0
20.02762007713318,4095,3.0,30.0,5.0
20.03371834754944,1055,3.0,30.0,5.0
20.04463481903076,4095,3.0,30.0,5.0
20.053781747817993,1347,3.0,30.0,5.0
20.063823699951172,4095,3.0,30.0,5.0
20.074805974960327,1573,3.0,30.0,5.0
20.083847761154175,4095,3.0,30.0,5.0
20.084846019744873,2086,3.0,30.0,5.0
20.103843450546265,4095,3.0,30.0,5.0
20.11385202407837,2947,3.0,30.0,5.0
20.12387776374817,4095,3.0,30.0,5.0
20.133825302124023,4095,3.0,30.0,5.0
20.134822368621826,4095,3.0,30.0,5.0
20.153805255889893,4095,3.0,30.0,5.0
20.163825035095215,4095,3.0,30.0,5.0
20.173813819885254,4095,3.0,30.0,5.0
20.18482255935669,4095,3.0,30.0,5.0
20.18482255935669,4095,3.0,30.0,5.0
20.203786373138428,4095,3.0,30.0,5.0
20.21460771560669,4095,3.0,30.0,5.0
20.223803281784058,4095,3.0,30.0,5.0
20.234591722488403,2347,3.0,30.0,5.0
20.244776964187622,4095,3.0,30.0,5.0
20.254880905151367,4095,3.0,30.0,5.0
20.26411247253418,4095,3.0,30.0,5.0
20.27065420150757,4095,3.0,30.0,5.0
20.28485345840454,4095,3.0,30.0,5.0
20.28485345840454,4095,3.0,30.0,5.0
20.304927349090576,4095,3.0,30.0,5.0
20.313950300216675,4095,3.0,30.0,5.0
20.32484006881714,4095,3.0,30.0,5.0
20.333927631378174,4095,3.0,30.0,5.0
20.33493185043335,4095,3.0,30.0,5.0
20.354897260665894,4095,3.0,30.0,5.0
20.364954710006714,4095,3.0,30.0,5.0
20.37491250038147,4095,3.0,30.0,5.0
20.38400387763977,4095,3.0,30.0,5.0
20.393685579299927,4095,3.0,30.0,5.0
20.404934406280518,4095,3.0,30.0,5.0
20.414915323257446,4095,3.0,30.0,5.0
20.424936294555664,4095,3.0,30.0,5.0
20.434643268585205,4095,3.0,30.0,5.0
20.441213846206665,4095,3.0,30.0,5.0
20.454610586166382,4095,3.0,30.0,5.0
20.463934183120728,4095,3.0,30.0,5.0
20.4738552570343,4095,3.0,30.0,5.0
20.483885526657104,4095,3.0,30.0,5.0
20.494731664657593,4095,3.0,30.0,5.0
20.50380516052246,3484,3.0,30.0,5.0
20.51068377494812,4095,3.0,30.0,5.0
20.52484941482544,2757,3.0,30.0,5.0
20.533936023712158,4095,3.0,30.0,5.0
20.53493595123291,2791,3.0,30.0,5.0
20.5549156665802,4095,3.0,30.0,5.0
20.563923358917236,3350,3.0,30.0,5.0
20.574934720993042,4095,3.0,30.0,5.0
20.583900928497314,2305,3.0,30.0,5.0
20.595017194747925,4095,3.0,30.0,5.0
20.59601616859436,1106,3.0,30.0,5.0
20.614990711212158,321,3.0,30.0,5.0
20.623945236206055,240,3.0,30.0,5.0
20.633897304534912,491,3.0,30.0,5.0
20.644409656524658,1420,3.0,30.0,5.0
20.654452323913574,421,3.0,30.0,5.0
20.66345977783203,240,3.0,30.0,5.0
20.66882872581482,0,3.0,30.0,5.0
20.684894323349,227,3.0,30.0,5.0
20.68522596359253,4095,3.0,30.0,5.0
20.704917192459106,405,3.0,30.0,5.0
20.71502113342285,4095,3.0,30.0,5.0
20.724912643432617,1879,3.0,30.0,5.0
20.733887910842896,4095,3.0,30.0,5.0
20.744894981384277,2953,3.0,30.0,5.0
20.754916429519653,4095,3.0,30.0,5.0
20.754916429519653,4095,3.0,30.0,5.0
20.774558067321777,4095,3.0,30.0,5.0
20.784828662872314,4095,3.0,30.0,5.0
20.794938564300537,4095,3.0,30.0,5.0
20.804880619049072,4095,3.0,30.0,5.0
20.814927577972412,4095,3.0,30.0,5.0
20.8248770236969,4095,3.0,30.0,5.0
20.826250791549683,4095,3.0,30.0,5.0
20.836259603500366,4095,3.0,30.0,5.0
20.854687213897705,4095,3.0,30.0,5.0
20.859766006469727,4095,3.0,30.0,5.0
20.874911785125732,4095,3.0,30.0,5.0
20.884752988815308,4095,3.0,30.0,5.0
20.89479088783264,4095,3.0,30.0,5.0
20.904749155044556,4023,3.0,30.0,5.0
20.90539813041687,965,3.0,30.0,5.0
20.92488384246826,4095,3.0,30.0,5.0
20.933916807174683,1565,3.0,30.0,5.0
20.938294172286987,4095,3.0,30.0,5.0
20.95490312576294,4095,3.0,30.0,5.0
20.96485733985901,4095,3.0,30.0,5.0
20.97492003440857,4095,3.0,30.0,5.0
20.983914613723755,4095,3.0,30.0,5.0
20.994927883148193,4095,3.0,30.0,5.0
21.004926681518555,4095,3.0,30.0,5.0
21.01494073867798,4095,3.0,30.0,5.0
21.025063514709473,4095,3.0,30.0,5.0
21.033909797668457,1787,3.0,30.0,5.0
21.044915676116943,4095,3.0,30.0,5.0
21.044915676116943,0,3.0,30.0,5.0
21.064354419708252,4095,3.0,30.0,5.0
21.070323705673218,34,3.0,30.0,5.0
21.08392024040222,4095,3.0,30.0,5.0
21.086095571517944,375,3.0,30.0,5.0
21.10501742362976,4095,3.0,30.0,5.0
21.113640069961548,589,3.0,30.0,5.0
21.124922275543213,4095,3.0,30.0,5.0
21.13384985923767,394,3.0,30.0,5.0
21.144863605499268,4095,3.0,30.0,5.0
21.15427589416504,145,3.0,30.0,5.0
21.164884090423584,4095,3.0,30.0,5.0
21.172781467437744,0,3.0,30.0,5.0
21.184226512908936,4095,3.0,30.0,5.0
21.19323182106018,0,3.0,30.0,5.0
21.203840494155884,4095,3.0,30.0,5.0
21.21003770828247,210,3.0,30.0,5.0
21.22473430633545,4095,3.0,30.0,5.0
21.22473430633545,63,3.0,30.0,5.0
21.24384832382202,4095,3.0,30.0,5.0
21.24384832382202,0,3.0,30.0,5.0
21.264845371246338,4095,3.0,30.0,5.0
21.2694354057312,0,3.0,30.0,5.0
21.284483432769775,4095,3.0,30.0,5.0
21.293595790863037,76,3.0,30.0,5.0
21.304248094558716,4095,3.0,30.0,5.0
21.31395411491394,121,3.0,30.0,5.0
21.31894564628601,4095,3.0,30.0,5.0
21.33386254310608,218,3.0,30.0,5.0
21.344656705856323,4095,3.0,30.0,5.0
21.354831218719482,231,3.0,30.0,5.0
21.363848209381104,4095,3.0,30.0,5.0
21.37387204170227,158,3.0,30.0,5.0
21.38373637199402,4095,3.0,30.0,5.0
21.384732961654663,103,3.0,30.0,5.0
21.404738187789917,4095,3.0,30.0,5.0
21.404738187789917,65,3.0,30.0,5.0
21.42472791671753,4095,3.0,30.0,5.0
21.42472791671753,0,3.0,30.0,5.0
21.436302423477173,4095,3.0,30.0,5.0
21.453521490097046,0,3.0,30.0,5.0
21.46475052833557,4095,3.0,30.0,5.0
21.46475052833557,0,3.0,30.0,5.0
21.483771562576294,4095,3.0,30.0,5.0
21.484769582748413,4095,3.0,30.0,5.0
21.503675937652588,4095,3.0,30.0,5.0
21.512433767318726,0,3.0,30.0,5.0
21.524744510650635,4095,3.0,30.0,5.0
21.532752990722656,0,3.0,30.0,5.0
21.543665885925293,4095,3.0,30.0,5.0
21.552703142166138,0,3.0,30.0,5.0
21.56477451324463,4095,3.0,30.0,5.0
21.56477451324463,0,3.0,30.0,5.0
21.58375883102417,4095,3.0,30.0,5.0
21.584757089614868,0,3.0,30.0,5.0
21.604745388031006,4095,3.0,30.0,5.0
21.604745388031006,0,3.0,30.0,5.0
21.623805046081543,4095,3.0,30.0,5.0
21.624802827835083,0,3.0,30.0,5.0
21.6437668800354,4095,3.0,30.0,5.0
21.64476490020752,0,3.0,30.0,5.0
21.663782358169556,4095,3.0,30.0,5.0
21.664780616760254,0,3.0,30.0,5.0
21.683791399002075,4095,3.0,30.0,5.0
21.6847882270813,0,3.0,30.0,5.0
21.70377230644226,4095,3.0,30.0,5.0
21.708131313323975,0,3.0,30.0,5.0
21.72471785545349,4095,3.0,30.0,5.0
21.72471785545349,0,3.0,30.0,5.0
21.73782253265381,4095,3.0,30.0,5.0
21.753520965576172,0,3.0,30.0,5.0
21.764820098876953,4095,3.0,30.0,5.0
21.769591331481934,0,3.0,30.0,5.0
21.783929109573364,4095,3.0,30.0,5.0
21.78492784500122,0,3.0,30.0,5.0
21.80393624305725,4095,3.0,30.0,5.0
21.812223196029663,0,3.0,30.0,5.0
21.82490348815918,4095,3.0,30.0,5.0
21.82490348815918,0,3.0,30.0,5.0
21.8447482585907,4095,3.0,30.0,5.0
21.8447482585907,348,3.0,30.0,5.0
21.863780975341797,4095,3.0,30.0,5.0
21.87380814552307,1248,3.0,30.0,5.0
21.88380265235901,4095,3.0,30.0,5.0
21.88480019569397,1263,3.0,30.0,5.0
21.904747247695923,4095,3.0,30.0,5.0
21.9138023853302,1431,3.0,30.0,5.0
21.92394208908081,4095,3.0,30.0,5.0
21.92693257331848,64,3.0,30.0,5.0
21.939456462860107,4095,3.0,30.0,5.0
21.953674793243408,0,3.0,30.0,5.0
21.96393632888794,4095,3.0,30.0,5.0
21.969014644622803,0,3.0,30.0,5.0
21.983919143676758,4095,3.0,30.0,5.0
21.99320650100708,0,3.0,30.0,5.0
22.004454135894775,4095,3.0,30.0,5.0
22.008150100708008,0,3.0,30.0,5.0
22.023983240127563,4095,3.0,30.0,5.0
22.024980545043945,6,3.0,30.0,5.0
22.03721809387207,70,3.0,30.0,5.0
22.053900241851807,259,3.0,30.0,5.0
22.054882764816284,94,3.0,30.0,5.0
22.06492590904236,0,3.0,30.0,5.0
22.074894428253174,16,3.0,30.0,5.0
22.08489441871643,0,3.0,30.0,5.0
22.094898223876953,939,3.0,30.0,5.0
22.11380124092102,4095,3.0,30.0,5.0
22.124785900115967,1063,3.0,30.0,5.0
22.133803844451904,4095,3.0,30.0,5.0
22.144304275512695,1550,3.0,30.0,5.0
22.15303683280945,372,3.0,30.0,5.0
22.16378402709961,4095,3.0,30.0,5.0
22.167519569396973,13,3.0,30.0,5.0
22.18376612663269,4095,3.0,30.0,5.0
22.18710947036743,0,3.0,30.0,5.0
22.20376420021057,4095,3.0,30.0,5.0
22.205759286880493,0,3.0,30.0,5.0
22.223782777786255,4095,3.0,30.0,5.0
22.224780797958374,0,3.0,30.0,5.0
22.243789434432983,4095,3.0,30.0,5.0
22.244787454605103,0,3.0,30.0,5.0
22.264816522598267,4095,3.0,30.0,5.0
22.264816522598267,0,3.0,30.0,5.0
22.283803939819336,4095,3.0,30.0,5.0
22.28480100631714,0,3.0,30.0,5.0
22.303788423538208,4095,3.0,30.0,5.0
22.30478596687317,0,3.0,30.0,5.0
22.324033498764038,4095,3.0,30.0,5.0
22.33111310005188,0,3.0,30.0,5.0
22.3437602519989,4095,3.0,30.0,5.0
22.35318374633789,0,3.0,30.0,5.0
22.363807201385498,4095,3.0,30.0,5.0
22.36888027191162,0,3.0,30.0,5.0
22.383772373199463,4095,3.0,30.0,5.0
22.386419773101807,0,3.0,30.0,5.0
22.403770208358765,4095,3.0,30.0,5.0
22.404767751693726,0,3.0,30.0,5.0
22.42380666732788,4095,3.0,30.0,5.0
22.433775186538696,1759,3.0,30.0,5.0
22.434773206710815,4095,3.0,30.0,5.0
22.453783750534058,4095,3.0,30.0,5.0
22.463809490203857,4095,3.0,30.0,5.0
22.473804712295532,4095,3.0,30.0,5.0
22.48378038406372,4095,3.0,30.0,5.0
22.48477792739868,4095,3.0,30.0,5.0
22.503776788711548,4095,3.0,30.0,5.0
22.50477361679077,3250,3.0,30.0,5.0
22.523785829544067,4095,3.0,30.0,5.0
22.533804416656494,2947,3.0,30.0,5.0
22.534801959991455,4095,3.0,30.0,5.0
22.553800582885742,2702,3.0,30.0,5.0
22.563722848892212,4095,3.0,30.0,5.0
22.569804430007935,2297,3.0,30.0,5.0
22.583979606628418,4095,3.0,30.0,5.0
22.593963146209717,2448,3.0,30.0,5.0
22.603957414627075,4095,3.0,30.0,5.0
22.61392569541931,1777,3.0,30.0,5.0
22.623913764953613,4095,3.0,30.0,5.0
22.633806705474854,1265,3.0,30.0,5.0
22.63480520248413,4095,3.0,30.0,5.0
22.64486861228943,701,3.0,30.0,5.0
22.663805961608887,4095,3.0,30.0,5.0
22.664803743362427,198,3.0,30.0,5.0
22.683775901794434,4095,3.0,30.0,5.0
22.684773921966553,0,3.0,30.0,5.0
22.703787326812744,4095,3.0,30.0,5.0
22.704784631729126,0,3.0,30.0,5.0
22.723790407180786,4095,3.0,30.0,5.0
22.724788188934326,0,3.0,30.0,5.0
22.74379587173462,4095,3.0,30.0,5.0
22.74479365348816,0,3.0,30.0,5.0
22.76441764831543,4095,3.0,30.0,5.0
22.769662857055664,0,3.0,30.0,5.0
22.783775329589844,4095,3.0,30.0,5.0
22.78577160835266,0,3.0,30.0,5.0
22.80380153656006,4095,3.0,30.0,5.0
22.80579710006714,0,3.0,30.0,5.0
22.823806762695312,4095,3.0,30.0,5.0
22.824804306030273,0,3.0,30.0,5.0
22.8437659740448,4095,3.0,30.0,5.0
22.846181631088257,0,3.0,30.0,5.0
22.863798141479492,4095,3.0,30.0,5.0
22.864795923233032,17,3.0,30.0,5.0
22.88380193710327,1790,3.0,30.0,5.0
22.884798765182495,18,3.0,30.0,5.0
22.89481210708618,0,3.0,30.0,5.0
22.904826641082764,0,3.0,30.0,5.0
22.914812564849854,304,3.0,30.0,5.0
22.933774948120117,4095,3.0,30.0,5.0
22.93477177619934,150,3.0,30.0,5.0
22.953802824020386,4095,3.0,30.0,5.0
22.954800605773926,259,3.0,30.0,5.0
22.97366166114807,4095,3.0,30.0,5.0
22.976925134658813,323,3.0,30.0,5.0
22.993757724761963,4095,3.0,30.0,5.0
23.00069832801819,286,3.0,30.0,5.0
23.013770818710327,4095,3.0,30.0,5.0
23.019330978393555,542,3.0,30.0,5.0
23.033849477767944,4095,3.0,30.0,5.0
23.034846782684326,647,3.0,30.0,5.0
23.053807497024536,4095,3.0,30.0,5.0
23.054804801940918,668,3.0,30.0,5.0
23.073763847351074,4095,3.0,30.0,5.0
23.083776235580444,4095,3.0,30.0,5.0
23.084774494171143,4095,3.0,30.0,5.0
23.095828533172607,305,3.0,30.0,5.0
23.113779306411743,4095,3.0,30.0,5.0
23.11477780342102,336,3.0,30.0,5.0
23.133840799331665,4095,3.0,30.0,5.0
23.133840799331665,270,3.0,30.0,5.0
23.153803825378418,4095,3.0,30.0,5.0
23.1635262966156,225,3.0,30.0,5.0
23.173746585845947,4095,3.0,30.0,5.0
23.174744606018066,81,3.0,30.0,5.0
23.19393253326416,4095,3.0,30.0,5.0
23.20290780067444,64,3.0,30.0,5.0
23.213918685913086,4095,3.0,30.0,5.0
23.223784685134888,1797,3.0,30.0,5.0
23.233837127685547,4095,3.0,30.0,5.0
23.23686909675598,523,3.0,30.0,5.0
23.25380849838257,4095,3.0,30.0,5.0
23.263843059539795,4095,3.0,30.0,5.0
23.264841318130493,4095,3.0,30.0,5.0
23.279868125915527,994,3.0,30.0,5.0
23.29378604888916,4095,3.0,30.0,5.0
23.2947838306427,0,3.0,30.0,5.0
23.314779043197632,4095,3.0,30.0,5.0
23.3174729347229,2352,3.0,30.0,5.0
23.333817958831787,4095,3.0,30.0,5.0
23.341680765151978,0,3.0,30.0,5.0
23.35439109802246,4095,3.0,30.0,5.0
23.363798141479492,1217,3.0,30.0,5.0
23.3742938041687,4095,3.0,30.0,5.0
23.384013891220093,1997,3.0,30.0,5.0
23.39414143562317,4095,3.0,30.0,5.0
23.403220176696777,596,3.0,30.0,5.0
23.41379427909851,4095,3.0,30.0,5.0
23.42390727996826,1183,3.0,30.0,5.0
23.433913707733154,4095,3.0,30.0,5.0
23.441271781921387,2115,3.0,30.0,5.0
23.453960418701172,4095,3.0,30.0,5.0
23.46465277671814,1644,3.0,30.0,5.0
23.473921298980713,4095,3.0,30.0,5.0
23.48448371887207,1250,3.0,30.0,5.0
23.493870496749878,4095,3.0,30.0,5.0
23.50369167327881,1469,3.0,30.0,5.0
23.511423110961914,4095,3.0,30.0,5.0
23.523921966552734,2095,3.0,30.0,5.0
23.534143686294556,4095,3.0,30.0,5.0
23.543149948120117,4095,3.0,30.0,5.0
23.554968118667603,4095,3.0,30.0,5.0
23.554968118667603,69,3.0,30.0,5.0
23.570302963256836,4095,3.0,30.0,5.0
23.583945512771606,2575,3.0,30.0,5.0
23.5939199924469,4095,3.0,30.0,5.0
23.603960275650024,2375,3.0,30.0,5.0
23.614367246627808,4095,3.0,30.0,5.0
23.623934030532837,1937,3.0,30.0,5.0
23.6342875957489,4095,3.0,30.0,5.0
23.64295244216919,48,3.0,30.0,5.0
23.653669357299805,4095,3.0,30.0,5.0
23.654665231704712,89,3.0,30.0,5.0
23.66893434524536,4095,3.0,30.0,5.0
23.679815530776978,198,3.0,30.0,5.0
23.689826250076294,4095,3.0,30.0,5.0
23.70393657684326,1075,3.0,30.0,5.0
23.704934120178223,4095,3.0,30.0,5.0
23.723658084869385,1703,3.0,30.0,5.0
23.733667373657227,4095,3.0,30.0,5.0
23.739931344985962,944,3.0,30.0,5.0
23.74770951271057,4095,3.0,30.0,5.0
23.76299285888672,955,3.0,30.0,5.0
23.770649671554565,4095,3.0,30.0,5.0
23.778323650360107,930,3.0,30.0,5.0
23.792816638946533,289,3.0,30.0,5.0
23.80373764038086,1165,3.0,30.0,5.0
23.81418013572693,1879,3.0,30.0,5.0
23.823432445526123,0,3.0,30.0,5.0
23.833879709243774,2736,3.0,30.0,5.0
23.8443124294281,2058,3.0,30.0,5.0
23.853086471557617,0,3.0,30.0,5.0
23.861706256866455,2449,3.0,30.0,5.0
23.87256932258606,0,3.0,30.0,5.0
23.883964776992798,2756,3.0,30.0,5.0
23.893725395202637,0,3.0,30.0,5.0
23.903884172439575,2627,3.0,30.0,5.0
23.91098690032959,0,3.0,30.0,5.0
23.92334818840027,2509,3.0,30.0,5.0
23.93385887145996,0,3.0,30.0,5.0
23.94348907470703,2490,3.0,30.0,5.0
23.953047513961792,0,3.0,30.0,5.0
23.96224880218506,687,3.0,30.0,5.0
23.973292589187622,0,3.0,30.0,5.0
23.983802318572998,245,3.0,30.0,5.0
23.993563652038574,0,3.0,30.0,5.0
24.003462314605713,176,3.0,30.0,5.0
24.010441541671753,4095,3.0,30.0,5.0
24.022809505462646,4095,3.0,30.0,5.0
24.03387975692749,4095,3.0,30.0,5.0
24.043367385864258,1573,3.0,30.0,5.0
24.053296327590942,4095,3.0,30.0,5.0
24.062233209609985,882,3.0,30.0,5.0
24.073460817337036,4095,3.0,30.0,5.0
24.083945989608765,2541,3.0,30.0,5.0
24.093098878860474,3581,3.0,30.0,5.0
24.10304594039917,158,3.0,30.0,5.0
24.11020827293396,178,3.0,30.0,5.0
24.122824907302856,1246,3.0,30.0,5.0
24.13386631011963,1751,3.0,30.0,5.0
24.14245295524597,623,3.0,30.0,5.0
24.153218269348145,3117,3.0,30.0,5.0
24.162515878677368,141,3.0,30.0,5.0
24.171068906784058,721,3.0,30.0,5.0
24.184120416641235,1840,3.0,30.0,5.0
24.193190813064575,3541,3.0,30.0,5.0
24.201393604278564,7,3.0,30.0,5.0
24.209432125091553,304,3.0,30.0,5.0
24.223671913146973,958,3.0,30.0,5.0
24.23376154899597,2054,3.0,30.0,5.0
24.243882179260254,2077,3.0,30.0,5.0
24.254196643829346,2704,3.0,30.0,5.0
24.2623610496521,81,3.0,30.0,5.0
24.273355722427368,4095,3.0,30.0,5.0
24.28388023376465,1446,3.0,30.0,5.0
24.293035984039307,2926,3.0,30.0,5.0
24.30149531364441,1603,3.0,30.0,5.0
24.309379816055298,2208,3.0,30.0,5.0
24.32373285293579,1410,3.0,30.0,5.0
24.33396577835083,478,3.0,30.0,5.0
24.339127779006958,593,3.0,30.0,5.0
24.3536319732666,2141,3.0,30.0,5.0
24.362091541290283,416,3.0,30.0,5.0
24.370135068893433,4095,3.0,30.0,5.0
24.384137868881226,1660,3.0,30.0,5.0
24.392261743545532,969,3.0,30.0,5.0
24.403684377670288,1392,3.0,30.0,5.0
24.411795616149902,4095,3.0,30.0,5.0
24.417256593704224,1378,3.0,30.0,5.0
24.43401074409485,4095,3.0,30.0,5.0
24.443774700164795,1103,3.0,30.0,5.0
24.453844785690308,4095,3.0,30.0,5.0
24.461881637573242,607,3.0,30.0,5.0
24.46835446357727,4095,3.0,30.0,5.0
24.48404049873352,4095,3.0,30.0,5.0
24.48404049873352,4095,3.0,30.0,5.0
24.501310348510742,4095,3.0,30.0,5.0
24.50769591331482,4095,3.0,30.0,5.0
24.52283215522766,4095,3.0,30.0,5.0
24.530513048171997,4095,3.0,30.0,5.0
24.538095474243164,4095,3.0,30.0,5.0
24.553468942642212,4095,3.0,30.0,5.0
24.562201023101807,4095,3.0,30.0,5.0
24.56887984275818,4095,3.0,30.0,5.0
24.583542108535767,4095,3.0,30.0,5.0
24.591809511184692,4095,3.0,30.0,5.0
24.599839210510254,4095,3.0,30.0,5.0
24.613892078399658,4095,3.0,30.0,5.0
24.62282657623291,4095,3.0,30.0,5.0
24.63370704650879,4095,3.0,30.0,5.0
24.638464212417603,4095,3.0,30.0,5.0
24.652838706970215,4095,3.0,30.0,5.0
24.66359043121338,4095,3.0,30.0,5.0
24.673507928848267,4095,3.0,30.0,5.0
24.683738708496094,4095,3.0,30.0,5.0
24.693140745162964,4095,3.0,30.0,5.0
24.703799962997437,4095,3.0,30.0,5.0
24.713770866394043,4095,3.0,30.0,5.0
24.723033666610718,4095,3.0,30.0,5.0
24.733860731124878,4095,3.0,30.0,5.0
24.743812799453735,4095,3.0,30.0,5.0
24.753496170043945,4095,3.0,30.0,5.0
24.763777017593384,4095,3.0,30.0,5.0
24.773757696151733,4095,3.0,30.0,5.0
24.78386950492859,4095,3.0,30.0,5.0
24.793455362319946,4095,3.0,30.0,5.0
24.80309796333313,4095,3.0,30.0,5.0
24.813493013381958,4095,3.0,30.0,5.0
24.82276940345764,4095,3.0,30.0,5.0
24.833847045898438,4095,3.0,30.0,5.0
24.84289264678955,4095,3.0,30.0,5.0
24.853532314300537,4095,3.0,30.0,5.0
24.863293409347534,4095,3.0,30.0,5.0
24.873554944992065,4095,3.0,30.0,5.0
24.883726835250854,4095,3.0,30.0,5.0
24.893805027008057,4095,3.0,30.0,5.0
24.903228044509888,4095,3.0,30.0,5.0
24.913994789123535,4095,3.0,30.0,5.0
24.922497749328613,4095,3.0,30.0,5.0
24.93372392654419,4095,3.0,30.0,5.0
24.93762469291687,4095,3.0,30.0,5.0
24.95384454727173,4095,3.0,30.0,5.0
24.963570594787598,4095,3.0,30.0,5.0
24.97037148475647,4095,3.0,30.0,5.0
24.984254360198975,4095,3.0,30.0,5.0
24.993603467941284,4095,3.0,30.0,5.0
25.001572132110596,4095,3.0,30.0,5.0
25.01317548751831,4095,3.0,30.0,5.0
25.021413803100586,4095,3.0,30.0,5.0
25.03142547607422,4095,3.0,30.0,5.0
25.036562204360962,4095,3.0,30.0,5.0
25.051866054534912,4095,3.0,30.0,5.0
25.059585094451904,4095,3.0,30.0,5.0
25.073872089385986,4095,3.0,30.0,5.0
25.08348560333252,4095,3.0,30.0,5.0
25.092326164245605,4095,3.0,30.0,5.0
25.103015899658203,4095,3.0,30.0,5.0
25.113168954849243,4095,3.0,30.0,5.0
25.121971607208252,4095,3.0,30.0,5.0
25.13367509841919,4095,3.0,30.0,5.0
25.14389729499817,4095,3.0,30.0,5.0
25.14389729499817,4095,3.0,30.0,5.0
25.159298181533813,176,3.0,30.0,5.0
25.173733234405518,4095,3.0,30.0,5.0
25.18375062942505,4095,3.0,30.0,5.0
25.19117283821106,4095,3.0,30.0,5.0
25.203661918640137,4095,3.0,30.0,5.0
25.21393895149231,2128,3.0,30.0,5.0
25.221798181533813,4095,3.0,30.0,5.0
25.23378086090088,3980,3.0,30.0,5.0
25.243745803833008,4095,3.0,30.0,5.0
25.25143814086914,2101,3.0,30.0,5.0
25.259180784225464,4095,3.0,30.0,5.0
25.273343563079834,1888,3.0,30.0,5.0
25.284888744354248,4095,3.0,30.0,5.0
25.290929794311523,2077,3.0,30.0,5.0
25.301884651184082,4095,3.0,30.0,5.0
25.31387233734131,983,3.0,30.0,5.0
25.32002067565918,4095,3.0,30.0,5.0
25.333677053451538,1337,3.0,30.0,5.0
25.343409538269043,768,3.0,30.0,5.0
25.352463960647583,1394,3.0,30.0,5.0
25.36372947692871,112,3.0,30.0,5.0
25.37314224243164,1104,3.0,30.0,5.0
25.383843421936035,4095,3.0,30.0,5.0
25.3906888961792,1379,3.0,30.0,5.0
25.400272607803345,28,3.0,30.0,5.0
25.412485361099243,711,3.0,30.0,5.0
25.423845529556274,4095,3.0,30.0,5.0
25.433838844299316,992,3.0,30.0,5.0
25.443222045898438,4095,3.0,30.0,5.0
25.451234340667725,816,3.0,30.0,5.0
25.458645582199097,4095,3.0,30.0,5.0
25.47287154197693,2277,3.0,30.0,5.0
25.48370671272278,4095,3.0,30.0,5.0
25.491392135620117,2749,3.0,30.0,5.0
25.503557920455933,4095,3.0,30.0,5.0
25.51314616203308,1614,3.0,30.0,5.0
25.520930767059326,4095,3.0,30.0,5.0
25.53362488746643,2749,3.0,30.0,5.0
25.54319477081299,4095,3.0,30.0,5.0
25.552257299423218,2022,3.0,30.0,5.0
25.560269355773926,4095,3.0,30.0,5.0
25.5736665725708,2165,3.0,30.0,5.0
25.58378767967224,4095,3.0,30.0,5.0
25.589972257614136,2320,3.0,30.0,5.0
25.603276252746582,4095,3.0,30.0,5.0
25.612982273101807,1927,3.0,30.0,5.0
25.621615409851074,4095,3.0,30.0,5.0
25.633841276168823,2455,3.0,30.0,5.0
25.643757820129395,4095,3.0,30.0,5.0
25.651318788528442,2135,3.0,30.0,5.0
25.659330129623413,4095,3.0,30.0,5.0
25.673498392105103,1968,3.0,30.0,5.0
25.683797359466553,4095,3.0,30.0,5.0
25.690810203552246,1991,3.0,30.0,5.0
25.703852653503418,4095,3.0,30.0,5.0
25.71282982826233,1872,3.0,30.0,5.0
25.723878145217896,4095,3.0,30.0,5.0
25.73346185684204,1106,3.0,30.0,5.0
25.743104457855225,4095,3.0,30.0,5.0
25.750165462493896,1609,3.0,30.0,5.0
25.763016939163208,4095,3.0,30.0,5.0
25.773232460021973,0,3.0,30.0,5.0
25.783698081970215,4095,3.0,30.0,5.0
25.789565801620483,101,3.0,30.0,5.0
25.802926540374756,946,3.0,30.0,5.0
25.812654495239258,0,3.0,30.0,5.0
25.818767309188843,4095,3.0,30.0,5.0
25.83401584625244,34,3.0,30.0,5.0
25.84226083755493,161,3.0,30.0,5.0
25.853060722351074,0,3.0,30.0,5.0
25.861099243164062,2705,3.0,30.0,5.0
25.873072147369385,0,3.0,30.0,5.0
25.87407112121582,4095,3.0,30.0,5.0
25.888400554656982,136,3.0,30.0,5.0
25.90372586250305,155,3.0,30.0,5.0
25.913503170013428,0,3.0,30.0,5.0
25.92358946800232,4095,3.0,30.0,5.0
25.933571815490723,0,3.0,30.0,5.0
25.942306756973267,69,3.0,30.0,5.0
25.95041513442993,0,3.0,30.0,5.0
25.96354365348816,0,3.0,30.0,5.0
25.968087196350098,0,3.0,30.0,5.0
25.983940362930298,4095,3.0,30.0,5.0
25.988147735595703,112,3.0,30.0,5.0
26.003618955612183,0,3.0,30.0,5.0
26.01117968559265,0,3.0,30.0,5.0
26.0225613117218,4095,3.0,30.0,5.0
26.033205270767212,0,3.0,30.0,5.0
26.043950080871582,2195,3.0,30.0,5.0
26.050009965896606,238,3.0,30.0,5.0
26.064138889312744,4095,3.0,30.0,5.0
26.073346853256226,2416,3.0,30.0,5.0
26.083564519882202,4095,3.0,30.0,5.0
26.088818073272705,2404,3.0,30.0,5.0
26.103863954544067,4095,3.0,30.0,5.0
26.110847234725952,2382,3.0,30.0,5.0
26.123217344284058,4095,3.0,30.0,5.0
26.133496284484863,1869,3.0,30.0,5.0
26.14354658126831,4095,3.0,30.0,5.0
26.15294313430786,1315,3.0,30.0,5.0
26.16370391845703,4095,3.0,30.0,5.0
26.173683166503906,1250,3.0,30.0,5.0
26.18359375,4095,3.0,30.0,5.0
26.191696643829346,1145,3.0,30.0,5.0
26.20375633239746,4095,3.0,30.0,5.0
26.21192955970764,1101,3.0,30.0,5.0
26.223567724227905,4095,3.0,30.0,5.0
26.233439683914185,507,3.0,30.0,5.0
26.24318289756775,4095,3.0,30.0,5.0
26.253715753555298,1168,3.0,30.0,5.0
26.26361584663391,4095,3.0,30.0,5.0
26.272979974746704,1253,3.0,30.0,5.0
26.283548831939697,4095,3.0,30.0,5.0
26.292895555496216,1282,3.0,30.0,5.0
26.303810834884644,4095,3.0,30.0,5.0
26.3114333152771,1134,3.0,30.0,5.0
26.323315143585205,4095,3.0,30.0,5.0
26.33349895477295,1242,3.0,30.0,5.0
26.343852758407593,4095,3.0,30.0,5.0
26.353373765945435,1091,3.0,30.0,5.0
26.36311388015747,4095,3.0,30.0,5.0
26.371835947036743,1040,3.0,30.0,5.0
26.383455514907837,4095,3.0,30.0,5.0
26.393964052200317,1088,3.0,30.0,5.0
26.403533935546875,4095,3.0,30.0,5.0
26.41017174720764,1088,3.0,30.0,5.0
26.41819453239441,4095,3.0,30.0,5.0
26.433408975601196,1072,3.0,30.0,5.0
26.443469047546387,4095,3.0,30.0,5.0
26.451492309570312,760,3.0,30.0,5.0
26.463980197906494,4095,3.0,30.0,5.0
26.47364115715027,737,3.0,30.0,5.0
26.483672380447388,4095,3.0,30.0,5.0
26.48788356781006,609,3.0,30.0,5.0
26.502996683120728,4095,3.0,30.0,5.0
26.511268854141235,528,3.0,30.0,5.0
26.5166916847229,4095,3.0,30.0,5.0
26.53337526321411,423,3.0,30.0,5.0
26.54307246208191,4095,3.0,30.0,5.0
26.55011773109436,172,3.0,30.0,5.0
26.563674211502075,4095,3.0,30.0,5.0
26.573566913604736,243,3.0,30.0,5.0
26.583910703659058,4095,3.0,30.0,5.0
26.593584299087524,251,3.0,30.0,5.0
26.602047204971313,4095,3.0,30.0,5.0
26.611018180847168,233,3.0,30.0,5.0
26.616872549057007,4095,3.0,30.0,5.0
26.633363008499146,188,3.0,30.0,5.0
26.640419006347656,4095,3.0,30.0,5.0
26.65185260772705,280,3.0,30.0,5.0
26.663456678390503,4095,3.0,30.0,5.0
26.67250895500183,199,3.0,30.0,5.0
26.683683395385742,4095,3.0,30.0,5.0
26.693209648132324,197,3.0,30.0,5.0
26.702842712402344,4095,3.0,30.0,5.0
26.71322464942932,343,3.0,30.0,5.0
26.72396159172058,4095,3.0,30.0,5.0
26.73252582550049,331,3.0,30.0,5.0
26.7411367893219,4095,3.0,30.0,5.0
26.74784755706787,430,3.0,30.0,5.0
26.763335466384888,4095,3.0,30.0,5.0
26.773450136184692,225,3.0,30.0,5.0
26.78345775604248,4095,3.0,30.0,5.0
26.79390835762024,290,3.0,30.0,5.0
26.802045583724976,4095,3.0,30.0,5.0
26.80938196182251,349,3.0,30.0,5.0
26.818036317825317,4095,3.0,30.0,5.0
26.83340358734131,528,3.0,30.0,5.0
26.8399817943573,4095,3.0,30.0,5.0
26.851420402526855,325,3.0,30.0,5.0
26.863003969192505,4095,3.0,30.0,5.0
26.870699167251587,320,3.0,30.0,5.0
26.879321813583374,4095,3.0,30.0,5.0
26.886021614074707,929,3.0,30.0,5.0
26.897414684295654,4095,3.0,30.0,5.0
26.908162832260132,294,3.0,30.0,5.0
26.916771411895752,4095,3.0,30.0,5.0
26.932111740112305,357,3.0,30.0,5.0
26.939683198928833,4095,3.0,30.0,5.0
26.951363801956177,464,3.0,30.0,5.0
26.96268367767334,4095,3.0,30.0,5.0
26.97272229194641,192,3.0,30.0,5.0
26.983392000198364,4095,3.0,30.0,5.0
26.993643522262573,415,3.0,30.0,5.0
27.00227975845337,4095,3.0,30.0,5.0
27.00888705253601,118,3.0,30.0,5.0
27.02311682701111,4095,3.0,30.0,5.0
27.03333830833435,103,3.0,30.0,5.0
27.039536476135254,4095,3.0,30.0,5.0
27.050813674926758,0,3.0,30.0,5.0
27.062570333480835,4095,3.0,30.0,5.0
27.069194078445435,9,3.0,30.0,5.0
27.07788109779358,4095,3.0,30.0,5.0
27.09313941001892,141,3.0,30.0,5.0
27.101139068603516,4095,3.0,30.0,5.0
27.108534812927246,496,3.0,30.0,5.0
27.123018264770508,4095,3.0,30.0,5.0
27.130626440048218,385,3.0,30.0,5.0
27.134247064590454,4095,3.0,30.0,5.0
27.146910190582275,367,3.0,30.0,5.0
27.163726091384888,4095,3.0,30.0,5.0
27.169942617416382,172,3.0,30.0,5.0
27.18342685699463,4095,3.0,30.0,5.0
27.193163633346558,302,3.0,30.0,5.0
27.203536987304688,4095,3.0,30.0,5.0
27.211790561676025,337,3.0,30.0,5.0
27.22366690635681,4095,3.0,30.0,5.0
27.233384609222412,391,3.0,30.0,5.0
27.24021339416504,4095,3.0,30.0,5.0
27.25381636619568,245,3.0,30.0,5.0
27.263054370880127,4095,3.0,30.0,5.0
27.270628213882446,198,3.0,30.0,5.0
27.28375244140625,4095,3.0,30.0,5.0
27.293973445892334,101,3.0,30.0,5.0
27.303868055343628,4095,3.0,30.0,5.0
27.309131145477295,219,3.0,30.0,5.0
27.323451280593872,4095,3.0,30.0,5.0
27.3332417011261,89,3.0,30.0,5.0
27.33979630470276,4095,3.0,30.0,5.0
27.3528892993927,172,3.0,30.0,5.0
27.362713098526,4095,3.0,30.0,5.0
27.370589017868042,182,3.0,30.0,5.0
27.384249687194824,4095,3.0,30.0,5.0
27.393495798110962,182,3.0,30.0,5.0
27.40112042427063,4095,3.0,30.0,5.0
27.41370940208435,165,3.0,30.0,5.0
27.423126935958862,4095,3.0,30.0,5.0
27.43388319015503,167,3.0,30.0,5.0
27.438568830490112,4095,3.0,30.0,5.0
27.452896118164062,129,3.0,30.0,5.0
27.461939334869385,4095,3.0,30.0,5.0
27.46954083442688,111,3.0,30.0,5.0
27.484248876571655,4095,3.0,30.0,5.0
27.493412256240845,87,3.0,30.0,5.0
27.503910303115845,4095,3.0,30.0,5.0
27.51429581642151,109,3.0,30.0,5.0
27.522984504699707,4095,3.0,30.0,5.0
27.533180713653564,119,3.0,30.0,5.0
27.53934645652771,4095,3.0,30.0,5.0
27.553621530532837,91,3.0,30.0,5.0
27.562296390533447,4095,3.0,30.0,5.0
27.573751211166382,0,3.0,30.0,5.0
27.583867073059082,4095,3.0,30.0,5.0
27.59275507926941,0,3.0,30.0,5.0
27.602285861968994,4095,3.0,30.0,5.0
27.613354206085205,0,3.0,30.0,5.0
27.62368941307068,4095,3.0,30.0,5.0
27.63390326499939,1,3.0,30.0,5.0
27.64364218711853,4095,3.0,30.0,5.0
27.65320348739624,113,3.0,30.0,5.0
27.66282033920288,4095,3.0,30.0,5.0
27.668683528900146,94,3.0,30.0,5.0
27.683361768722534,4095,3.0,30.0,5.0
27.69270610809326,129,3.0,30.0,5.0
27.703254222869873,4095,3.0,30.0,5.0
27.712682247161865,144,3.0,30.0,5.0
27.72247886657715,4095,3.0,30.0,5.0
27.733426809310913,128,3.0,30.0,5.0
27.743492364883423,4095,3.0,30.0,5.0
27.753103017807007,112,3.0,30.0,5.0
27.76284670829773,4095,3.0,30.0,5.0
27.770702123641968,82,3.0,30.0,5.0
27.782880067825317,4095,3.0,30.0,5.0
27.793500185012817,63,3.0,30.0,5.0
27.800169706344604,4095,3.0,30.0,5.0
27.814204216003418,71,3.0,30.0,5.0
27.8179874420166,4095,3.0,30.0,5.0
27.833465814590454,63,3.0,30.0,5.0
27.841853380203247,4095,3.0,30.0,5.0
27.853271961212158,28,3.0,30.0,5.0
27.86154294013977,4095,3.0,30.0,5.0
27.869205713272095,0,3.0,30.0,5.0
27.883631706237793,4095,3.0,30.0,5.0
27.890356063842773,0,3.0,30.0,5.0
27.900573015213013,4095,3.0,30.0,5.0
27.913450956344604,0,3.0,30.0,5.0
27.922075748443604,4095,3.0,30.0,5.0
27.929790019989014,0,3.0,30.0,5.0
27.937390565872192,4095,3.0,30.0,5.0
27.953646183013916,1136,3.0,30.0,5.0
27.959418535232544,4095,3.0,30.0,5.0
27.97210931777954,0,3.0,30.0,5.0
27.983465671539307,4095,3.0,30.0,5.0
27.99351167678833,0,3.0,30.0,5.0
28.001495122909546,4095,3.0,30.0,5.0
28.01313829421997,0,3.0,30.0,5.0
28.023770570755005,4095,3.0,30.0,5.0
28.03309178352356,0,3.0,30.0,5.0
28.04386329650879,4095,3.0,30.0,5.0
28.052929878234863,0,3.0,30.0,5.0
28.06118941307068,4095,3.0,30.0,5.0
28.068884134292603,0,3.0,30.0,5.0
28.083317518234253,4095,3.0,30.0,5.0
28.091970920562744,0,3.0,30.0,5.0
28.101468563079834,4095,3.0,30.0,5.0
28.112919807434082,0,3.0,30.0,5.0
28.121543169021606,4095,3.0,30.0,5.0
28.13353705406189,0,3.0,30.0,5.0
28.13796615600586,4095,3.0,30.0,5.0
28.15371561050415,0,3.0,30.0,5.0
28.161083698272705,4095,3.0,30.0,5.0
28.168326377868652,0,3.0,30.0,5.0
28.183120012283325,4095,3.0,30.0,5.0
28.19164729118347,0,3.0,30.0,5.0
28.200774431228638,4095,3.0,30.0,5.0
28.213575839996338,0,3.0,30.0,5.0
28.222331523895264,4095,3.0,30.0,5.0
28.233110904693604,0,3.0,30.0,5.0
28.243396043777466,4095,3.0,30.0,5.0
28.25371766090393,0,3.0,30.0,5.0
28.2597758769989,4095,3.0,30.0,5.0
28.269474267959595,0,3.0,30.0,5.0
28.28275179862976,4095,3.0,30.0,5.0
28.29139804840088,0,3.0,30.0,5.0
28.30183696746826,4095,3.0,30.0,5.0
28.305981159210205,1145,3.0,30.0,5.0
28.32114863395691,4095,3.0,30.0,5.0
28.333879709243774,2865,3.0,30.0,5.0
28.336427211761475,4095,3.0,30.0,5.0
28.35182499885559,2799,3.0,30.0,5.0
28.360962390899658,4095,3.0,30.0,5.0
28.374022483825684,378,3.0,30.0,5.0
28.382888793945312,4095,3.0,30.0,5.0
28.391096830368042,205,3.0,30.0,5.0
28.400740146636963,4095,3.0,30.0,5.0
28.413244009017944,405,3.0,30.0,5.0
28.416876316070557,4095,3.0,30.0,5.0
28.429781675338745,529,3.0,30.0,5.0
28.435272455215454,4095,3.0,30.0,5.0
28.451755046844482,177,3.0,30.0,5.0
28.46006965637207,4095,3.0,30.0,5.0
28.473116874694824,96,3.0,30.0,5.0
28.483085870742798,4095,3.0,30.0,5.0
28.49074077606201,0,3.0,30.0,5.0
28.50373601913452,4095,3.0,30.0,5.0
28.513005018234253,0,3.0,30.0,5.0
28.522716522216797,4095,3.0,30.0,5.0
28.533098697662354,0,3.0,30.0,5.0
28.543758869171143,4095,3.0,30.0,5.0
28.55055069923401,38,3.0,30.0,5.0
28.560810565948486,4095,3.0,30.0,5.0
28.573585987091064,0,3.0,30.0,5.0
28.583110094070435,4095,3.0,30.0,5.0
28.589661598205566,0,3.0,30.0,5.0
28.604114055633545,4095,3.0,30.0,5.0
28.612763166427612,0,3.0,30.0,5.0
28.620455980300903,4095,3.0,30.0,5.0
28.627295970916748,0,3.0,30.0,5.0
28.643604278564453,4095,3.0,30.0,5.0
28.65378713607788,0,3.0,30.0,5.0
28.658751010894775,4095,3.0,30.0,5.0
28.6733500957489,0,3.0,30.0,5.0
28.683735847473145,4095,3.0,30.0,5.0
28.68951153755188,0,3.0,30.0,5.0
28.703937768936157,4095,3.0,30.0,5.0
28.712543487548828,0,3.0,30.0,5.0
28.72119140625,4095,3.0,30.0,5.0
28.73294758796692,0,3.0,30.0,5.0
28.7432541847229,4095,3.0,30.0,5.0
28.750057697296143,4095,3.0,30.0,5.0
28.761003732681274,4095,3.0,30.0,5.0
28.772934675216675,4095,3.0,30.0,5.0
28.781548738479614,4095,3.0,30.0,5.0
28.78923749923706,4095,3.0,30.0,5.0
28.803823232650757,4095,3.0,30.0,5.0
28.81309700012207,4095,3.0,30.0,5.0
28.82097053527832,4095,3.0,30.0,5.0
28.83296799659729,4095,3.0,30.0,5.0
28.84293222427368,4095,3.0,30.0,5.0
28.853705406188965,4095,3.0,30.0,5.0
28.85839009284973,4095,3.0,30.0,5.0
28.87370753288269,4095,3.0,30.0,5.0
28.882994651794434,4095,3.0,30.0,5.0
28.893622398376465,4095,3.0,30.0,5.0
28.903594970703125,4095,3.0,30.0,5.0
28.9120512008667,4095,3.0,30.0,5.0
28.92210340499878,4095,3.0,30.0,5.0
28.93380045890808,4095,3.0,30.0,5.0
28.94374918937683,4095,3.0,30.0,5.0
28.952569246292114,4095,3.0,30.0,5.0
28.96028232574463,4095,3.0,30.0,5.0
28.973766088485718,4095,3.0,30.0,5.0
28.983442068099976,4095,3.0,30.0,5.0
28.990293502807617,4095,3.0,30.0,5.0
29.003445863723755,4095,3.0,30.0,5.0
29.012808322906494,1428,3.0,30.0,5.0
29.02375841140747,4095,3.0,30.0,5.0
29.033644676208496,503,3.0,30.0,5.0
29.043909311294556,1490,3.0,30.0,5.0
29.0528621673584,362,3.0,30.0,5.0
29.058223724365234,1440,3.0,30.0,5.0
29.07335090637207,4095,3.0,30.0,5.0
29.08372950553894,2308,3.0,30.0,5.0
29.08854365348816,4095,3.0,30.0,5.0
29.102877140045166,1951,3.0,30.0,5.0
29.113109588623047,4095,3.0,30.0,5.0
29.118691205978394,2650,3.0,30.0,5.0
29.1332049369812,4095,3.0,30.0,5.0
29.14228105545044,1283,3.0,30.0,5.0
29.150945901870728,4095,3.0,30.0,5.0
29.157628536224365,1424,3.0,30.0,5.0
29.1729896068573,4095,3.0,30.0,5.0
29.1729896068573,1771,3.0,30.0,5.0
29.18998074531555,4095,3.0,30.0,5.0
29.203657865524292,1421,3.0,30.0,5.0
29.21251606941223,4095,3.0,30.0,5.0
29.220077991485596,3015,3.0,30.0,5.0
29.233853816986084,4095,3.0,30.0,5.0
29.243606090545654,2017,3.0,30.0,5.0
29.250221967697144,4095,3.0,30.0,5.0
29.264166116714478,2018,3.0,30.0,5.0
29.273332595825195,4095,3.0,30.0,5.0
29.28357744216919,2147,3.0,30.0,5.0
29.289047956466675,4095,3.0,30.0,5.0
29.30372929573059,1246,3.0,30.0,5.0
29.313197374343872,4095,3.0,30.0,5.0
29.32352042198181,4095,3.0,30.0,5.0
29.333569049835205,4095,3.0,30.0,5.0
29.342817068099976,4095,3.0,30.0,5.0
29.35309863090515,4095,3.0,30.0,5.0
29.364071130752563,4095,3.0,30.0,5.0
29.372532606124878,4095,3.0,30.0,5.0
29.38371181488037,4095,3.0,30.0,5.0
29.392682552337646,4095,3.0,30.0,5.0
29.40323829650879,4095,3.0,30.0,5.0
29.410884857177734,4095,3.0,30.0,5.0
29.41961407661438,4095,3.0,30.0,5.0
29.433799266815186,4095,3.0,30.0,5.0
29.44249653816223,4095,3.0,30.0,5.0
29.45033359527588,4095,3.0,30.0,5.0
29.464158535003662,4095,3.0,30.0,5.0
29.47228503227234,4095,3.0,30.0,5.0
29.483705043792725,4095,3.0,30.0,5.0
29.48996663093567,4095,3.0,30.0,5.0
29.50396704673767,4095,3.0,30.0,5.0
29.510910272598267,4095,3.0,30.0,5.0
29.522050619125366,4095,3.0,30.0,5.0
29.533268213272095,4095,3.0,30.0,5.0
29.541345834732056,4095,3.0,30.0,5.0
29.552403211593628,4095,3.0,30.0,5.0
29.563767910003662,4095,3.0,30.0,5.0
29.57198715209961,4095,3.0,30.0,5.0
29.583661556243896,4095,3.0,30.0,5.0
29.59407639503479,4095,3.0,30.0,5.0
29.602720260620117,4095,3.0,30.0,5.0
29.612361431121826,4095,3.0,30.0,5.0
29.6181161403656,4095,3.0,30.0,5.0
29.633446216583252,4095,3.0,30.0,5.0
29.641152143478394,4095,3.0,30.0,5.0
29.64893913269043,4095,3.0,30.0,5.0
29.66333770751953,4095,3.0,30.0,5.0
29.67183780670166,4095,3.0,30.0,5.0
29.682746648788452,4095,3.0,30.0,5.0
29.694149255752563,4095,3.0,30.0,5.0
29.70256543159485,4095,3.0,30.0,5.0
29.710216522216797,4095,3.0,30.0,5.0
29.718036890029907,4095,3.0,30.0,5.0
29.733330726623535,4095,3.0,30.0,5.0
29.74088215827942,4095,3.0,30.0,5.0
29.753514528274536,4095,3.0,30.0,5.0
29.76328945159912,4095,3.0,30.0,5.0
29.77162790298462,4095,3.0,30.0,5.0
29.77972412109375,4095,3.0,30.0,5.0
29.794259786605835,4095,3.0,30.0,5.0
29.803603649139404,4095,3.0,30.0,5.0
29.809984922409058,4095,3.0,30.0,5.0
29.81873393058777,4095,3.0,30.0,5.0
29.832868337631226,4095,3.0,30.0,5.0
29.840745449066162,4095,3.0,30.0,5.0
29.84832525253296,4095,3.0,30.0,5.0
29.86371088027954,4095,3.0,30.0,5.0
29.871398448944092,4095,3.0,30.0,5.0
29.88348937034607,4095,3.0,30.0,5.0
29.8867130279541,4095,3.0,30.0,5.0
29.900379419326782,4095,3.0,30.0,5.0
29.911073446273804,4095,3.0,30.0,5.0
29.924169540405273,4095,3.0,30.0,5.0
29.93273663520813,4095,3.0,30.0,5.0
29.940457582473755,4095,3.0,30.0,5.0
29.95325255393982,4095,3.0,30.0,5.0
29.963597297668457,4095,3.0,30.0,5.0
29.97109365463257,4095,3.0,30.0,5.0
29.98323893547058,4095,3.0,30.0,5.0
29.993078231811523,4095,3.0,30.0,5.0
