Timestamp,EMG Value,massage_speed,massage_duration,relaxment_level
0.0047266483306884766,2010,1.0,30.0,2.0
0.014762401580810547,2419,1.0,30.0,2.0
0.022633790969848633,1696,1.0,30.0,2.0
0.037116289138793945,1744,1.0,30.0,2.0
0.04727530479431152,1014,1.0,30.0,2.0
0.05746936798095703,496,1.0,30.0,2.0
0.05746936798095703,1712,1.0,30.0,2.0
0.07057738304138184,0,1.0,30.0,2.0
0.0806267261505127,1249,1.0,30.0,2.0
0.09062552452087402,175,1.0,30.0,2.0
0.10062551498413086,1402,1.0,30.0,2.0
0.110626220703125,79,1.0,30.0,2.0
0.12062716484069824,1347,1.0,30.0,2.0
0.13062596321105957,63,1.0,30.0,2.0
0.14674019813537598,1316,1.0,30.0,2.0
0.14778566360473633,221,1.0,30.0,2.0
0.15877032279968262,1439,1.0,30.0,2.0
0.17036843299865723,75,1.0,30.0,2.0
0.18041539192199707,1365,1.0,30.0,2.0
0.190415620803833,0,1.0,30.0,2.0
0.206923246383667,1325,1.0,30.0,2.0
0.2165544033050537,0,1.0,30.0,2.0
0.22057056427001953,1309,1.0,30.0,2.0
0.23059630393981934,0,1.0,30.0,2.0
0.2470703125,1253,1.0,30.0,2.0
0.24797487258911133,0,1.0,30.0,2.0
0.2596471309661865,1230,1.0,30.0,2.0
0.2696957588195801,0,1.0,30.0,2.0
0.28100132942199707,1185,1.0,30.0,2.0
0.291046142578125,0,1.0,30.0,2.0
0.30104565620422363,1148,1.0,30.0,2.0
0.3171052932739258,0,1.0,30.0,2.0
0.32711052894592285,1088,1.0,30.0,2.0
0.32711052894592285,0,1.0,30.0,2.0
0.3469047546386719,1049,1.0,30.0,2.0
0.356919527053833,351,1.0,30.0,2.0
0.36691999435424805,1151,1.0,30.0,2.0
0.36830687522888184,1055,1.0,30.0,2.0
0.37832188606262207,893,1.0,30.0,2.0
0.3883228302001953,1057,1.0,30.0,2.0
0.39832425117492676,837,1.0,30.0,2.0
0.4083220958709717,794,1.0,30.0,2.0
0.4268770217895508,550,1.0,30.0,2.0
0.4348607063293457,999,1.0,30.0,2.0
0.4470345973968506,4095,1.0,30.0,2.0
0.45725440979003906,1712,1.0,30.0,2.0
0.4636259078979492,4095,1.0,30.0,2.0
0.47472357749938965,4095,1.0,30.0,2.0
0.48690247535705566,4095,1.0,30.0,2.0
0.4969148635864258,4095,1.0,30.0,2.0
0.5069375038146973,4095,1.0,30.0,2.0
0.5150775909423828,4095,1.0,30.0,2.0
0.5237431526184082,4095,1.0,30.0,2.0
0.5314278602600098,4095,1.0,30.0,2.0
0.5458807945251465,4095,1.0,30.0,2.0
0.5544478893280029,4095,1.0,30.0,2.0
0.5634431838989258,4095,1.0,30.0,2.0
0.5764760971069336,4095,1.0,30.0,2.0
0.5851261615753174,4095,1.0,30.0,2.0
0.5929207801818848,4095,1.0,30.0,2.0
0.6005210876464844,4095,1.0,30.0,2.0
0.615814208984375,4095,1.0,30.0,2.0
0.6254291534423828,4095,1.0,30.0,2.0
0.6343469619750977,4095,1.0,30.0,2.0
0.6471898555755615,4095,1.0,30.0,2.0
0.6567986011505127,4095,1.0,30.0,2.0
0.664813756942749,4095,1.0,30.0,2.0
0.6762568950653076,4095,1.0,30.0,2.0
0.6850264072418213,4095,1.0,30.0,2.0
0.696617841720581,4095,1.0,30.0,2.0
0.7070512771606445,4095,1.0,30.0,2.0
0.7167832851409912,4095,1.0,30.0,2.0
0.7245051860809326,4095,1.0,30.0,2.0
0.7327072620391846,4095,1.0,30.0,2.0
0.7472517490386963,4095,1.0,30.0,2.0
0.754967451095581,4095,1.0,30.0,2.0
0.7640819549560547,4095,1.0,30.0,2.0
0.7770471572875977,4095,1.0,30.0,2.0
0.7837493419647217,4095,1.0,30.0,2.0
0.7970893383026123,4095,1.0,30.0,2.0
0.7990884780883789,4095,1.0,30.0,2.0
0.8147587776184082,4095,1.0,30.0,2.0
0.8230676651000977,4095,1.0,30.0,2.0
0.8297085762023926,4095,1.0,30.0,2.0
0.8460569381713867,4095,1.0,30.0,2.0
0.8567426204681396,4095,1.0,30.0,2.0
0.8670144081115723,4095,1.0,30.0,2.0
0.8768303394317627,4095,1.0,30.0,2.0
0.8835430145263672,4095,1.0,30.0,2.0
0.8968367576599121,4095,1.0,30.0,2.0
0.9067296981811523,4095,1.0,30.0,2.0
0.9163758754730225,4095,1.0,30.0,2.0
0.923919677734375,4095,1.0,30.0,2.0
0.9319162368774414,0,1.0,30.0,2.0
0.9465622901916504,301,1.0,30.0,2.0
0.9546480178833008,0,1.0,30.0,2.0
0.9652163982391357,4095,1.0,30.0,2.0
0.9768316745758057,0,1.0,30.0,2.0
0.9871015548706055,816,1.0,30.0,2.0
0.9964625835418701,0,1.0,30.0,2.0
1.0063316822052002,4095,1.0,30.0,2.0
1.016324758529663,2155,1.0,30.0,2.0
1.0225377082824707,4095,1.0,30.0,2.0
1.0323371887207031,2895,1.0,30.0,2.0
1.0468802452087402,4095,1.0,30.0,2.0
1.0478346347808838,4095,1.0,30.0,2.0
1.057844638824463,4095,1.0,30.0,2.0
1.0762388706207275,4095,1.0,30.0,2.0
1.086545705795288,4095,1.0,30.0,2.0
1.0962409973144531,4095,1.0,30.0,2.0
1.1008477210998535,4095,1.0,30.0,2.0
1.1151680946350098,1973,1.0,30.0,2.0
1.1231799125671387,510,1.0,30.0,2.0
1.1300833225250244,620,1.0,30.0,2.0
1.1400971412658691,620,1.0,30.0,2.0
1.1500959396362305,78,1.0,30.0,2.0
1.1611385345458984,826,1.0,30.0,2.0
1.176370620727539,554,1.0,30.0,2.0
1.179732084274292,3509,1.0,30.0,2.0
1.1920197010040283,539,1.0,30.0,2.0
1.20648193359375,4095,1.0,30.0,2.0
1.2140920162200928,470,1.0,30.0,2.0
1.2232015132904053,4095,1.0,30.0,2.0
1.2299840450286865,576,1.0,30.0,2.0
1.246417760848999,4095,1.0,30.0,2.0
1.2542388439178467,530,1.0,30.0,2.0
1.2667889595031738,4095,1.0,30.0,2.0
1.2763688564300537,449,1.0,30.0,2.0
1.2858023643493652,4095,1.0,30.0,2.0
1.2966830730438232,577,1.0,30.0,2.0
1.3070967197418213,0,1.0,30.0,2.0
1.3167600631713867,191,1.0,30.0,2.0
1.32667875289917,102,1.0,30.0,2.0
1.3366312980651855,128,1.0,30.0,2.0
1.3463013172149658,140,1.0,30.0,2.0
1.3564062118530273,111,1.0,30.0,2.0
1.3667504787445068,172,1.0,30.0,2.0
1.3770301342010498,112,1.0,30.0,2.0
1.3867824077606201,205,1.0,30.0,2.0
1.396378993988037,58,1.0,30.0,2.0
1.4064083099365234,164,1.0,30.0,2.0
1.4135041236877441,59,1.0,30.0,2.0
1.4226908683776855,260,1.0,30.0,2.0
1.431809425354004,93,1.0,30.0,2.0
1.4464836120605469,377,1.0,30.0,2.0
1.4553918838500977,88,1.0,30.0,2.0
1.4632441997528076,453,1.0,30.0,2.0
1.47491455078125,94,1.0,30.0,2.0
1.4868988990783691,473,1.0,30.0,2.0
1.4964797496795654,321,1.0,30.0,2.0
1.506894588470459,479,1.0,30.0,2.0
1.5171990394592285,1074,1.0,30.0,2.0
1.5264010429382324,450,1.0,30.0,2.0
1.530609130859375,2323,1.0,30.0,2.0
1.5467500686645508,455,1.0,30.0,2.0
1.5557613372802734,511,1.0,30.0,2.0
1.567084550857544,403,1.0,30.0,2.0
1.5750951766967773,2107,1.0,30.0,2.0
1.5824894905090332,131,1.0,30.0,2.0
1.5965125560760498,356,1.0,30.0,2.0
1.606259822845459,10,1.0,30.0,2.0
1.6150293350219727,314,1.0,30.0,2.0
1.6230456829071045,478,1.0,30.0,2.0
1.6328275203704834,816,1.0,30.0,2.0
1.6465225219726562,451,1.0,30.0,2.0
1.6523818969726562,776,1.0,30.0,2.0
1.666813850402832,474,1.0,30.0,2.0
1.6754465103149414,883,1.0,30.0,2.0
1.6870110034942627,592,1.0,30.0,2.0
1.69655179977417,813,1.0,30.0,2.0
1.7063632011413574,624,1.0,30.0,2.0
1.7166731357574463,766,1.0,30.0,2.0
1.7219500541687012,963,1.0,30.0,2.0
1.736436128616333,653,1.0,30.0,2.0
1.7463605403900146,1106,1.0,30.0,2.0
1.753509759902954,557,1.0,30.0,2.0
1.7667632102966309,911,1.0,30.0,2.0
1.776543378829956,528,1.0,30.0,2.0
1.7837038040161133,0,1.0,30.0,2.0
1.7971878051757812,0,1.0,30.0,2.0
1.8002510070800781,0,1.0,30.0,2.0
1.8171937465667725,0,1.0,30.0,2.0
1.8272082805633545,0,1.0,30.0,2.0
1.83103346824646,0,1.0,30.0,2.0
1.8468310832977295,0,1.0,30.0,2.0
1.8511371612548828,0,1.0,30.0,2.0
1.8668797016143799,0,1.0,30.0,2.0
1.867774486541748,0,1.0,30.0,2.0
1.883220911026001,0,1.0,30.0,2.0
1.8967528343200684,0,1.0,30.0,2.0
1.8991577625274658,22,1.0,30.0,2.0
1.9148073196411133,0,1.0,30.0,2.0
1.926164150238037,0,1.0,30.0,2.0
1.9367895126342773,0,1.0,30.0,2.0
1.946700096130371,843,1.0,30.0,2.0
1.9510600566864014,0,1.0,30.0,2.0
1.967132806777954,721,1.0,30.0,2.0
1.9771826267242432,0,1.0,30.0,2.0
1.9822108745574951,491,1.0,30.0,2.0
1.9969887733459473,1950,1.0,30.0,2.0
1.9980084896087646,1267,1.0,30.0,2.0
2.015812635421753,1491,1.0,30.0,2.0
2.026641368865967,586,1.0,30.0,2.0
2.0356414318084717,880,1.0,30.0,2.0
2.0470025539398193,710,1.0,30.0,2.0
2.051288604736328,716,1.0,30.0,2.0
2.0667383670806885,1693,1.0,30.0,2.0
2.0734269618988037,810,1.0,30.0,2.0
2.083287000656128,1164,1.0,30.0,2.0
2.0956153869628906,642,1.0,30.0,2.0
2.105010986328125,743,1.0,30.0,2.0
2.116697311401367,1763,1.0,30.0,2.0
2.12713623046875,1847,1.0,30.0,2.0
2.1366822719573975,1795,1.0,30.0,2.0
2.146761655807495,1597,1.0,30.0,2.0
2.156219482421875,1211,1.0,30.0,2.0
2.166414976119995,1933,1.0,30.0,2.0
2.1750423908233643,1289,1.0,30.0,2.0
2.186810255050659,1550,1.0,30.0,2.0
2.196831226348877,1200,1.0,30.0,2.0
2.2073192596435547,1414,1.0,30.0,2.0
2.214195728302002,1316,1.0,30.0,2.0
2.226966381072998,1287,1.0,30.0,2.0
2.2366104125976562,1136,1.0,30.0,2.0
2.247384548187256,1175,1.0,30.0,2.0
2.2521023750305176,1330,1.0,30.0,2.0
2.2664716243743896,1198,1.0,30.0,2.0
2.2747926712036133,1293,1.0,30.0,2.0
2.287198305130005,1156,1.0,30.0,2.0
2.2969768047332764,1200,1.0,30.0,2.0
2.3055245876312256,997,1.0,30.0,2.0
2.31717586517334,1093,1.0,30.0,2.0
2.3264341354370117,933,1.0,30.0,2.0
2.3309829235076904,1008,1.0,30.0,2.0
2.3466243743896484,776,1.0,30.0,2.0
2.35636043548584,1187,1.0,30.0,2.0
2.3653900623321533,720,1.0,30.0,2.0
2.374638080596924,1487,1.0,30.0,2.0
2.379960775375366,598,1.0,30.0,2.0
2.3966636657714844,1603,1.0,30.0,2.0
2.406834125518799,579,1.0,30.0,2.0
2.4131147861480713,1427,1.0,30.0,2.0
2.4231526851654053,576,1.0,30.0,2.0
2.434560775756836,1125,1.0,30.0,2.0
2.444591522216797,592,1.0,30.0,2.0
2.454582452774048,944,1.0,30.0,2.0
2.4670164585113525,608,1.0,30.0,2.0
2.4770402908325195,846,1.0,30.0,2.0
2.48704195022583,599,1.0,30.0,2.0
2.487703323364258,784,1.0,30.0,2.0
2.4985454082489014,530,1.0,30.0,2.0
2.5085482597351074,775,1.0,30.0,2.0
2.519599199295044,525,1.0,30.0,2.0
2.5296061038970947,718,1.0,30.0,2.0
2.5421321392059326,508,1.0,30.0,2.0
2.552277088165283,675,1.0,30.0,2.0
2.565464735031128,448,1.0,30.0,2.0
2.5769553184509277,681,1.0,30.0,2.0
2.5808093547821045,624,1.0,30.0,2.0
2.5966241359710693,1391,1.0,30.0,2.0
2.5996158123016357,1093,1.0,30.0,2.0
2.613342761993408,1084,1.0,30.0,2.0
2.626546621322632,17,1.0,30.0,2.0
2.6352245807647705,1942,1.0,30.0,2.0
2.642970085144043,832,1.0,30.0,2.0
2.6505930423736572,928,1.0,30.0,2.0
2.665928840637207,1574,1.0,30.0,2.0
2.673656702041626,1730,1.0,30.0,2.0
2.6822919845581055,1699,1.0,30.0,2.0
2.6964471340179443,1278,1.0,30.0,2.0
2.7042460441589355,1842,1.0,30.0,2.0
2.7161738872528076,891,1.0,30.0,2.0
2.726339340209961,2590,1.0,30.0,2.0
2.7361843585968018,1580,1.0,30.0,2.0
2.7463700771331787,1107,1.0,30.0,2.0
2.757028102874756,842,1.0,30.0,2.0
2.766619920730591,1362,1.0,30.0,2.0
2.7763144969940186,891,1.0,30.0,2.0
2.7865395545959473,1649,1.0,30.0,2.0
2.7966268062591553,1264,1.0,30.0,2.0
2.8068785667419434,1583,1.0,30.0,2.0
2.8171489238739014,809,1.0,30.0,2.0
2.826749563217163,2142,1.0,30.0,2.0
2.8365371227264404,845,1.0,30.0,2.0
2.8472673892974854,1207,1.0,30.0,2.0
2.8567240238189697,494,1.0,30.0,2.0
2.8671493530273438,1063,1.0,30.0,2.0
2.8765878677368164,627,1.0,30.0,2.0
2.8870179653167725,1299,1.0,30.0,2.0
2.8970649242401123,373,1.0,30.0,2.0
2.9070281982421875,405,1.0,30.0,2.0
2.9168128967285156,602,1.0,30.0,2.0
2.921370506286621,417,1.0,30.0,2.0
2.9367854595184326,591,1.0,30.0,2.0
2.946627616882324,432,1.0,30.0,2.0
2.957101583480835,530,1.0,30.0,2.0
2.966935396194458,448,1.0,30.0,2.0
2.974978446960449,511,1.0,30.0,2.0
2.9822144508361816,4095,1.0,30.0,2.0
2.9967989921569824,435,1.0,30.0,2.0
3.00627064704895,4095,1.0,30.0,2.0
3.0130295753479004,464,1.0,30.0,2.0
3.026423215866089,4095,1.0,30.0,2.0
3.032254219055176,371,1.0,30.0,2.0
3.042266845703125,4095,1.0,30.0,2.0
3.049978733062744,384,1.0,30.0,2.0
3.059988021850586,4095,1.0,30.0,2.0
3.0715606212615967,546,1.0,30.0,2.0
3.081568717956543,4095,1.0,30.0,2.0
3.094559907913208,353,1.0,30.0,2.0
3.1045706272125244,3745,1.0,30.0,2.0
3.116656541824341,304,1.0,30.0,2.0
3.117655038833618,1936,1.0,30.0,2.0
3.127692222595215,322,1.0,30.0,2.0
3.140625,1061,1.0,30.0,2.0
3.1507203578948975,273,1.0,30.0,2.0
3.160752296447754,522,1.0,30.0,2.0
3.1719119548797607,253,1.0,30.0,2.0
3.181927442550659,331,1.0,30.0,2.0
3.191927194595337,293,1.0,30.0,2.0
3.2045540809631348,149,1.0,30.0,2.0
3.216418504714966,330,1.0,30.0,2.0
3.2265846729278564,0,1.0,30.0,2.0
3.23443865776062,219,1.0,30.0,2.0
3.246817111968994,0,1.0,30.0,2.0
3.2487401962280273,229,1.0,30.0,2.0
3.26366925239563,0,1.0,30.0,2.0
3.271754741668701,288,1.0,30.0,2.0
3.2817740440368652,0,1.0,30.0,2.0
3.294173240661621,278,1.0,30.0,2.0
3.304187059402466,0,1.0,30.0,2.0
3.3162965774536133,323,1.0,30.0,2.0
3.317296028137207,0,1.0,30.0,2.0
3.3273074626922607,333,1.0,30.0,2.0
3.337334632873535,0,1.0,30.0,2.0
3.348464250564575,285,1.0,30.0,2.0
3.3584792613983154,20,1.0,30.0,2.0
3.376927614212036,225,1.0,30.0,2.0
3.3869385719299316,14,1.0,30.0,2.0
3.396944284439087,155,1.0,30.0,2.0
3.3973422050476074,96,1.0,30.0,2.0
3.4169600009918213,68,1.0,30.0,2.0
3.426284074783325,210,1.0,30.0,2.0
3.4367802143096924,68,1.0,30.0,2.0
3.4465649127960205,221,1.0,30.0,2.0
3.456704616546631,40,1.0,30.0,2.0
3.463465690612793,277,1.0,30.0,2.0
3.4724955558776855,32,1.0,30.0,2.0
3.4815492630004883,315,1.0,30.0,2.0
3.4915616512298584,0,1.0,30.0,2.0
3.5015618801116943,385,1.0,30.0,2.0
3.511561632156372,0,1.0,30.0,2.0
3.5244107246398926,413,1.0,30.0,2.0
3.5369279384613037,0,1.0,30.0,2.0
3.5469396114349365,571,1.0,30.0,2.0
3.556936502456665,0,1.0,30.0,2.0
3.5669405460357666,624,1.0,30.0,2.0
3.576936721801758,0,1.0,30.0,2.0
3.5871922969818115,667,1.0,30.0,2.0
3.5881924629211426,2416,1.0,30.0,2.0
3.5992934703826904,3764,1.0,30.0,2.0
3.6093056201934814,2579,1.0,30.0,2.0
3.6262247562408447,4095,1.0,30.0,2.0
3.6368558406829834,756,1.0,30.0,2.0
3.646747350692749,863,1.0,30.0,2.0
3.655498743057251,0,1.0,30.0,2.0
3.663168430328369,0,1.0,30.0,2.0
3.6711812019348145,43,1.0,30.0,2.0
3.6791832447052,0,1.0,30.0,2.0
3.687229633331299,251,1.0,30.0,2.0
3.704906463623047,0,1.0,30.0,2.0
3.7149531841278076,362,1.0,30.0,2.0
3.7271814346313477,114,1.0,30.0,2.0
3.737272024154663,2183,1.0,30.0,2.0
3.746279001235962,1104,1.0,30.0,2.0
3.749277353286743,2226,1.0,30.0,2.0
3.7592899799346924,2094,1.0,30.0,2.0
3.771094560623169,2113,1.0,30.0,2.0
3.786442279815674,547,1.0,30.0,2.0
3.795175075531006,663,1.0,30.0,2.0
3.8019156455993652,813,1.0,30.0,2.0
3.8162832260131836,2340,1.0,30.0,2.0
3.8266568183898926,528,1.0,30.0,2.0
3.837003707885742,130,1.0,30.0,2.0
3.8466250896453857,4095,1.0,30.0,2.0
3.8563859462738037,1150,1.0,30.0,2.0
3.8643741607666016,4095,1.0,30.0,2.0
3.8723831176757812,2191,1.0,30.0,2.0
3.881761312484741,4095,1.0,30.0,2.0
3.8970143795013428,1907,1.0,30.0,2.0
3.9064557552337646,4095,1.0,30.0,2.0
3.9158918857574463,1797,1.0,30.0,2.0
3.925058603286743,4095,1.0,30.0,2.0
3.931504487991333,1835,1.0,30.0,2.0
3.9471635818481445,4095,1.0,30.0,2.0
3.9561610221862793,1838,1.0,30.0,2.0
3.964618444442749,4095,1.0,30.0,2.0
3.972632884979248,2226,1.0,30.0,2.0
3.9794304370880127,4095,1.0,30.0,2.0
3.997032403945923,2252,1.0,30.0,2.0
4.0050764083862305,715,1.0,30.0,2.0
4.015657186508179,2448,1.0,30.0,2.0
4.02570915222168,576,1.0,30.0,2.0
4.031299352645874,2444,1.0,30.0,2.0
4.04610276222229,555,1.0,30.0,2.0
4.057270050048828,2352,1.0,30.0,2.0
4.0632758140563965,3120,1.0,30.0,2.0
4.071372747421265,2306,1.0,30.0,2.0
4.0822601318359375,3010,1.0,30.0,2.0
4.097213983535767,2322,1.0,30.0,2.0
4.100123167037964,3376,1.0,30.0,2.0
4.116924285888672,2372,1.0,30.0,2.0
4.124937057495117,3897,1.0,30.0,2.0
4.12938928604126,2307,1.0,30.0,2.0
4.146920919418335,4082,1.0,30.0,2.0
4.156933546066284,2285,1.0,30.0,2.0
4.163621187210083,4069,1.0,30.0,2.0
4.171637296676636,2239,1.0,30.0,2.0
4.179381847381592,4028,1.0,30.0,2.0
4.197158098220825,2243,1.0,30.0,2.0
4.19888710975647,3971,1.0,30.0,2.0
4.215303659439087,2211,1.0,30.0,2.0
4.223321914672852,3920,1.0,30.0,2.0
4.230729341506958,2237,1.0,30.0,2.0
4.247161626815796,3376,1.0,30.0,2.0
4.257796764373779,2343,1.0,30.0,2.0
4.266903400421143,2916,1.0,30.0,2.0
4.271824598312378,2365,1.0,30.0,2.0
4.286605358123779,2755,1.0,30.0,2.0
4.297004461288452,2176,1.0,30.0,2.0
4.3070831298828125,2149,1.0,30.0,2.0
4.315479755401611,1844,1.0,30.0,2.0
4.325489282608032,999,1.0,30.0,2.0
4.334068059921265,797,1.0,30.0,2.0
4.346754789352417,867,1.0,30.0,2.0
4.34885311126709,701,1.0,30.0,2.0
4.362795352935791,886,1.0,30.0,2.0
4.377017974853516,206,1.0,30.0,2.0
4.38690185546875,736,1.0,30.0,2.0
4.397258281707764,2322,1.0,30.0,2.0
4.40721869468689,2420,1.0,30.0,2.0
4.416642904281616,2203,1.0,30.0,2.0
4.426988124847412,2452,1.0,30.0,2.0
4.431499719619751,1931,1.0,30.0,2.0
4.447069406509399,1782,1.0,30.0,2.0
4.453833103179932,1570,1.0,30.0,2.0
4.466825723648071,1935,1.0,30.0,2.0
4.476876974105835,1459,1.0,30.0,2.0
4.4845380783081055,1943,1.0,30.0,2.0
4.496720552444458,1289,1.0,30.0,2.0
4.5066704750061035,1947,1.0,30.0,2.0
4.51668906211853,1463,1.0,30.0,2.0
4.5240912437438965,2265,1.0,30.0,2.0
4.537542819976807,1548,1.0,30.0,2.0
4.546574831008911,1918,1.0,30.0,2.0
4.554879665374756,1447,1.0,30.0,2.0
4.563806056976318,1913,1.0,30.0,2.0
4.577077627182007,1663,1.0,30.0,2.0
4.586757659912109,1900,1.0,30.0,2.0
4.5971455574035645,1424,1.0,30.0,2.0
4.606639862060547,1743,1.0,30.0,2.0
4.616954565048218,1488,1.0,30.0,2.0
4.623988151550293,1865,1.0,30.0,2.0
4.637411117553711,1446,1.0,30.0,2.0
4.647015810012817,1367,1.0,30.0,2.0
4.655088186264038,1266,1.0,30.0,2.0
4.662697792053223,1635,1.0,30.0,2.0
4.67644739151001,1328,1.0,30.0,2.0
4.686774492263794,2416,1.0,30.0,2.0
4.697082281112671,1629,1.0,30.0,2.0
4.707606554031372,2558,1.0,30.0,2.0
4.714266538619995,1552,1.0,30.0,2.0
4.723323106765747,2515,1.0,30.0,2.0
4.728468418121338,1489,1.0,30.0,2.0
4.7394633293151855,2521,1.0,30.0,2.0
4.753159523010254,1483,1.0,30.0,2.0
4.763262748718262,2587,1.0,30.0,2.0
4.77467155456543,1551,1.0,30.0,2.0
4.783543586730957,1791,1.0,30.0,2.0
4.796969890594482,2352,1.0,30.0,2.0
4.80674934387207,1422,1.0,30.0,2.0
4.81514835357666,2151,1.0,30.0,2.0
4.8271379470825195,2199,1.0,30.0,2.0
4.830862045288086,346,1.0,30.0,2.0
4.845155715942383,618,1.0,30.0,2.0
4.854883193969727,1070,1.0,30.0,2.0
4.865674734115601,1147,1.0,30.0,2.0
4.87669825553894,2352,1.0,30.0,2.0
4.884521722793579,1684,1.0,30.0,2.0
4.897166967391968,1008,1.0,30.0,2.0
4.907339811325073,1015,1.0,30.0,2.0
4.916601181030273,1435,1.0,30.0,2.0
4.923778772354126,1131,1.0,30.0,2.0
4.936882972717285,628,1.0,30.0,2.0
4.946441173553467,1471,1.0,30.0,2.0
4.957727670669556,1575,1.0,30.0,2.0
4.9671361446380615,965,1.0,30.0,2.0
4.976303815841675,803,1.0,30.0,2.0
4.987019777297974,931,1.0,30.0,2.0
4.997403621673584,1469,1.0,30.0,2.0
5.0063183307647705,798,1.0,30.0,2.0
5.016366481781006,1595,1.0,30.0,2.0
5.0252320766448975,947,1.0,30.0,2.0
5.036470174789429,911,1.0,30.0,2.0
5.046926736831665,1563,1.0,30.0,2.0
5.056509733200073,1049,1.0,30.0,2.0
5.066157341003418,1461,1.0,30.0,2.0
5.0756330490112305,951,1.0,30.0,2.0
5.082794666290283,1405,1.0,30.0,2.0
5.097177982330322,814,1.0,30.0,2.0
5.107075929641724,1351,1.0,30.0,2.0
5.11512017250061,844,1.0,30.0,2.0
5.1222240924835205,1322,1.0,30.0,2.0
5.129351377487183,873,1.0,30.0,2.0
5.145660161972046,1380,1.0,30.0,2.0
5.149034261703491,996,1.0,30.0,2.0
5.166581392288208,1526,1.0,30.0,2.0
5.175766468048096,982,1.0,30.0,2.0
5.182565212249756,1296,1.0,30.0,2.0
5.196506500244141,955,1.0,30.0,2.0
5.205515146255493,1312,1.0,30.0,2.0
5.2140278816223145,1377,1.0,30.0,2.0
5.222036361694336,1040,1.0,30.0,2.0
5.229537010192871,1189,1.0,30.0,2.0
5.246049404144287,1834,1.0,30.0,2.0
5.256582021713257,1471,1.0,30.0,2.0
5.267146587371826,1494,1.0,30.0,2.0
5.2771594524383545,1301,1.0,30.0,2.0
5.279209136962891,1230,1.0,30.0,2.0
5.296802759170532,1246,1.0,30.0,2.0
5.298669338226318,739,1.0,30.0,2.0
5.312852144241333,1648,1.0,30.0,2.0
5.321188449859619,792,1.0,30.0,2.0
5.336832284927368,1396,1.0,30.0,2.0
5.347143173217773,659,1.0,30.0,2.0
5.354431867599487,1453,1.0,30.0,2.0
5.366711139678955,780,1.0,30.0,2.0
5.376908540725708,765,1.0,30.0,2.0
5.382935523986816,1744,1.0,30.0,2.0
5.397220611572266,1686,1.0,30.0,2.0
5.406741142272949,1371,1.0,30.0,2.0
5.41339111328125,1994,1.0,30.0,2.0
5.424319744110107,1476,1.0,30.0,2.0
5.436616897583008,1569,1.0,30.0,2.0
5.4469990730285645,1394,1.0,30.0,2.0
5.456191539764404,1312,1.0,30.0,2.0
5.46702766418457,903,1.0,30.0,2.0
5.47576904296875,1609,1.0,30.0,2.0
5.4866416454315186,594,1.0,30.0,2.0
5.496883153915405,1842,1.0,30.0,2.0
5.506588697433472,487,1.0,30.0,2.0
5.517096042633057,2011,1.0,30.0,2.0
5.524186372756958,877,1.0,30.0,2.0
5.537173748016357,1523,1.0,30.0,2.0
5.545047283172607,1904,1.0,30.0,2.0
5.557011604309082,2114,1.0,30.0,2.0
5.566900253295898,1850,1.0,30.0,2.0
5.575666904449463,2015,1.0,30.0,2.0
5.584692001342773,1584,1.0,30.0,2.0
5.596174716949463,929,1.0,30.0,2.0
5.605365514755249,721,1.0,30.0,2.0
5.61484694480896,1089,1.0,30.0,2.0
5.627516269683838,1291,1.0,30.0,2.0
5.6372644901275635,1762,1.0,30.0,2.0
5.64724063873291,1776,1.0,30.0,2.0
5.652588844299316,488,1.0,30.0,2.0
5.666386842727661,4095,1.0,30.0,2.0
5.677186727523804,413,1.0,30.0,2.0
5.686940908432007,4080,1.0,30.0,2.0
5.697289228439331,289,1.0,30.0,2.0
5.6979453563690186,3390,1.0,30.0,2.0
5.707957983016968,371,1.0,30.0,2.0
5.717957496643066,394,1.0,30.0,2.0
5.729257106781006,345,1.0,30.0,2.0
5.746683835983276,1849,1.0,30.0,2.0
5.756255388259888,406,1.0,30.0,2.0
5.765021800994873,1899,1.0,30.0,2.0
5.774974346160889,326,1.0,30.0,2.0
5.781642913818359,2031,1.0,30.0,2.0
5.7969512939453125,1715,1.0,30.0,2.0
5.806762456893921,832,1.0,30.0,2.0
5.817073345184326,2015,1.0,30.0,2.0
5.827084064483643,1568,1.0,30.0,2.0
5.829113483428955,1725,1.0,30.0,2.0
5.839128732681274,1251,1.0,30.0,2.0
5.850462436676025,1325,1.0,30.0,2.0
5.8605639934539795,1397,1.0,30.0,2.0
5.870564222335815,1193,1.0,30.0,2.0
5.880564212799072,1662,1.0,30.0,2.0
5.89056396484375,1031,1.0,30.0,2.0
5.900581359863281,1411,1.0,30.0,2.0
5.9118359088897705,912,1.0,30.0,2.0
5.926907539367676,1220,1.0,30.0,2.0
5.936926603317261,736,1.0,30.0,2.0
5.94693660736084,997,1.0,30.0,2.0
5.957089424133301,669,1.0,30.0,2.0
5.9667768478393555,971,1.0,30.0,2.0
5.977065086364746,592,1.0,30.0,2.0
5.980227947235107,1683,1.0,30.0,2.0
5.997419357299805,575,1.0,30.0,2.0
6.006437301635742,1047,1.0,30.0,2.0
6.016469717025757,503,1.0,30.0,2.0
6.026805400848389,1667,1.0,30.0,2.0
6.027801990509033,505,1.0,30.0,2.0
6.037806510925293,1823,1.0,30.0,2.0
6.050194025039673,469,1.0,30.0,2.0
6.060210704803467,1552,1.0,30.0,2.0
6.072995185852051,754,1.0,30.0,2.0
6.086927652359009,1503,1.0,30.0,2.0
6.096954345703125,1371,1.0,30.0,2.0
6.107044458389282,1383,1.0,30.0,2.0
6.108043909072876,1681,1.0,30.0,2.0
6.119074106216431,1270,1.0,30.0,2.0
6.129082679748535,2125,1.0,30.0,2.0
6.139082670211792,1041,1.0,30.0,2.0
6.1490819454193115,2254,1.0,30.0,2.0
6.166376829147339,802,1.0,30.0,2.0
6.176849126815796,2263,1.0,30.0,2.0
6.181684255599976,602,1.0,30.0,2.0
6.197223424911499,2195,1.0,30.0,2.0
6.206398010253906,950,1.0,30.0,2.0
6.212487459182739,2217,1.0,30.0,2.0
6.226928234100342,982,1.0,30.0,2.0
6.236994743347168,2124,1.0,30.0,2.0
6.246938228607178,1050,1.0,30.0,2.0
6.249616384506226,2061,1.0,30.0,2.0
6.259753942489624,960,1.0,30.0,2.0
6.272615671157837,2043,1.0,30.0,2.0
6.282638072967529,962,1.0,30.0,2.0
6.292642116546631,1947,1.0,30.0,2.0
6.30263352394104,946,1.0,30.0,2.0
6.312633752822876,1899,1.0,30.0,2.0
6.326946973800659,997,1.0,30.0,2.0
6.330493927001953,1835,1.0,30.0,2.0
6.340506076812744,1114,1.0,30.0,2.0
6.35050630569458,1326,1.0,30.0,2.0
6.360509395599365,1341,1.0,30.0,2.0
6.373433589935303,656,1.0,30.0,2.0
6.386813640594482,1257,1.0,30.0,2.0
6.39680027961731,714,1.0,30.0,2.0
6.404806137084961,1216,1.0,30.0,2.0
6.416815996170044,799,1.0,30.0,2.0
6.4262213706970215,1179,1.0,30.0,2.0
6.434296369552612,576,1.0,30.0,2.0
6.444297790527344,1104,1.0,30.0,2.0
6.454298496246338,703,1.0,30.0,2.0
6.464297533035278,1057,1.0,30.0,2.0
6.474297285079956,663,1.0,30.0,2.0
6.486922740936279,887,1.0,30.0,2.0
6.496931314468384,666,1.0,30.0,2.0
6.506934404373169,1152,1.0,30.0,2.0
6.516931056976318,591,1.0,30.0,2.0
6.526934385299683,1002,1.0,30.0,2.0
6.529945611953735,1929,1.0,30.0,2.0
6.539951324462891,1351,1.0,30.0,2.0
6.548725366592407,1941,1.0,30.0,2.0
6.558731555938721,1351,1.0,30.0,2.0
6.5687315464019775,1309,1.0,30.0,2.0
6.586711406707764,1856,1.0,30.0,2.0
6.5971479415893555,1232,1.0,30.0,2.0
6.601825952529907,1713,1.0,30.0,2.0
6.61519980430603,1187,1.0,30.0,2.0
6.624310493469238,1370,1.0,30.0,2.0
6.629069089889526,925,1.0,30.0,2.0
6.639079332351685,1392,1.0,30.0,2.0
6.649080514907837,757,1.0,30.0,2.0
6.659079551696777,1337,1.0,30.0,2.0
6.673272609710693,806,1.0,30.0,2.0
6.6868414878845215,1158,1.0,30.0,2.0
6.689191818237305,619,1.0,30.0,2.0
6.699704170227051,1360,1.0,30.0,2.0
6.709719657897949,1911,1.0,30.0,2.0
6.71970534324646,1695,1.0,30.0,2.0
6.729704141616821,576,1.0,30.0,2.0
6.7409508228302,1631,1.0,30.0,2.0
6.750957012176514,597,1.0,30.0,2.0
6.76095724105835,1840,1.0,30.0,2.0
6.7709572315216064,1606,1.0,30.0,2.0
6.781516790390015,1808,1.0,30.0,2.0
6.7951579093933105,2032,1.0,30.0,2.0
6.8069376945495605,1665,1.0,30.0,2.0
6.8142194747924805,1795,1.0,30.0,2.0
6.824235677719116,1697,1.0,30.0,2.0
6.829543113708496,1926,1.0,30.0,2.0
6.846747159957886,1671,1.0,30.0,2.0
6.847254037857056,1993,1.0,30.0,2.0
6.858145475387573,1665,1.0,30.0,2.0
6.868144512176514,2287,1.0,30.0,2.0
6.880300045013428,1619,1.0,30.0,2.0
6.890315532684326,2320,1.0,30.0,2.0
6.900316476821899,1734,1.0,30.0,2.0
6.9133288860321045,2305,1.0,30.0,2.0
6.925437927246094,1762,1.0,30.0,2.0
6.936901092529297,2318,1.0,30.0,2.0
6.945475339889526,1631,1.0,30.0,2.0
6.955800771713257,2139,1.0,30.0,2.0
6.965801000595093,1667,1.0,30.0,2.0
6.976927042007446,2212,1.0,30.0,2.0
6.981525182723999,1578,1.0,30.0,2.0
6.99386739730835,2129,1.0,30.0,2.0
7.006800174713135,1488,1.0,30.0,2.0
7.017056703567505,2176,1.0,30.0,2.0
7.024330139160156,1459,1.0,30.0,2.0
7.037191867828369,2138,1.0,30.0,2.0
7.046933889389038,1402,1.0,30.0,2.0
7.054943799972534,1993,1.0,30.0,2.0
7.066937208175659,1457,1.0,30.0,2.0
7.076949596405029,2165,1.0,30.0,2.0
7.086948394775391,1476,1.0,30.0,2.0
7.096951007843018,2227,1.0,30.0,2.0
7.10723352432251,1488,1.0,30.0,2.0
7.108229875564575,2132,1.0,30.0,2.0
7.127105236053467,1533,1.0,30.0,2.0
7.137115478515625,2035,1.0,30.0,2.0
7.147115468978882,1382,1.0,30.0,2.0
7.157115697860718,1871,1.0,30.0,2.0
7.166248559951782,1185,1.0,30.0,2.0
7.167248010635376,1776,1.0,30.0,2.0
7.186927080154419,1131,1.0,30.0,2.0
7.196279048919678,1662,1.0,30.0,2.0
7.206280469894409,1061,1.0,30.0,2.0
7.21624755859375,1648,1.0,30.0,2.0
7.2271599769592285,1124,1.0,30.0,2.0
7.237361907958984,1658,1.0,30.0,2.0
7.246657371520996,1022,1.0,30.0,2.0
7.256200075149536,1587,1.0,30.0,2.0
7.263302803039551,1267,1.0,30.0,2.0
7.2733166217803955,1095,1.0,30.0,2.0
7.283315420150757,1584,1.0,30.0,2.0
7.296926498413086,813,1.0,30.0,2.0
7.306249618530273,1203,1.0,30.0,2.0
7.307247877120972,1712,1.0,30.0,2.0
7.31725811958313,1507,1.0,30.0,2.0
7.327258110046387,2237,1.0,30.0,2.0
7.347147464752197,1584,1.0,30.0,2.0
7.353921890258789,1949,1.0,30.0,2.0
7.363942861557007,1330,1.0,30.0,2.0
7.373939514160156,1648,1.0,30.0,2.0
7.387075424194336,1099,1.0,30.0,2.0
7.396240472793579,1451,1.0,30.0,2.0
7.4069273471832275,1040,1.0,30.0,2.0
7.417098045349121,1294,1.0,30.0,2.0
7.427141904830933,858,1.0,30.0,2.0
7.4296791553497314,1181,1.0,30.0,2.0
7.446732759475708,1569,1.0,30.0,2.0
7.453164339065552,1435,1.0,30.0,2.0
7.462677717208862,918,1.0,30.0,2.0
7.477121591567993,1148,1.0,30.0,2.0
7.478922367095947,755,1.0,30.0,2.0
7.497188091278076,1315,1.0,30.0,2.0
7.507169246673584,643,1.0,30.0,2.0
7.5172648429870605,1372,1.0,30.0,2.0
7.527304172515869,498,1.0,30.0,2.0
7.537384986877441,1479,1.0,30.0,2.0
7.547123670578003,413,1.0,30.0,2.0
7.556247711181641,1424,1.0,30.0,2.0
7.5670506954193115,533,1.0,30.0,2.0
7.576259136199951,1476,1.0,30.0,2.0
7.57725715637207,473,1.0,30.0,2.0
7.597053050994873,1504,1.0,30.0,2.0
7.606247425079346,501,1.0,30.0,2.0
7.607245445251465,1505,1.0,30.0,2.0
7.627119779586792,483,1.0,30.0,2.0
7.636250257492065,1455,1.0,30.0,2.0
7.646282196044922,1965,1.0,30.0,2.0
7.656930923461914,1450,1.0,30.0,2.0
7.666215658187866,2103,1.0,30.0,2.0
7.674425363540649,1414,1.0,30.0,2.0
7.6870551109313965,2065,1.0,30.0,2.0
7.696536540985107,1328,1.0,30.0,2.0
7.706212997436523,2096,1.0,30.0,2.0
7.7170538902282715,1350,1.0,30.0,2.0
7.7262184619903564,2130,1.0,30.0,2.0
7.736260652542114,1230,1.0,30.0,2.0
7.747063875198364,2046,1.0,30.0,2.0
7.756221294403076,1314,1.0,30.0,2.0
7.767095565795898,2035,1.0,30.0,2.0
7.777124404907227,1239,1.0,30.0,2.0
7.786051988601685,1990,1.0,30.0,2.0
7.7962634563446045,1275,1.0,30.0,2.0
7.807084083557129,1997,1.0,30.0,2.0
7.816223382949829,1266,1.0,30.0,2.0
7.826257944107056,2064,1.0,30.0,2.0
7.837096929550171,1221,1.0,30.0,2.0
7.84622597694397,1951,1.0,30.0,2.0
7.856705665588379,1242,1.0,30.0,2.0
7.8660595417022705,2073,1.0,30.0,2.0
7.876144647598267,1388,1.0,30.0,2.0
7.881615877151489,2017,1.0,30.0,2.0
7.897272348403931,1488,1.0,30.0,2.0
7.89950966835022,2151,1.0,30.0,2.0
7.917248487472534,1467,1.0,30.0,2.0
7.927230358123779,2212,1.0,30.0,2.0
7.937257766723633,1459,1.0,30.0,2.0
7.946265459060669,2126,1.0,30.0,2.0
7.956296682357788,1421,1.0,30.0,2.0
7.966224670410156,2149,1.0,30.0,2.0
7.9762492179870605,1328,1.0,30.0,2.0
7.986220598220825,2032,1.0,30.0,2.0
7.996242046356201,1277,1.0,30.0,2.0
8.006226062774658,974,1.0,30.0,2.0
8.01621961593628,1279,1.0,30.0,2.0
8.027228832244873,434,1.0,30.0,2.0
8.027228832244873,1040,1.0,30.0,2.0
8.046227216720581,128,1.0,30.0,2.0
8.056227207183838,1434,1.0,30.0,2.0
8.06621503829956,2317,1.0,30.0,2.0
8.076947927474976,1904,1.0,30.0,2.0
8.087080478668213,2254,1.0,30.0,2.0
8.097028493881226,1775,1.0,30.0,2.0
8.10602617263794,1969,1.0,30.0,2.0
8.112151145935059,1590,1.0,30.0,2.0
8.126230001449585,1857,1.0,30.0,2.0
8.136227369308472,1474,1.0,30.0,2.0
8.14707350730896,1660,1.0,30.0,2.0
8.1562340259552,1360,1.0,30.0,2.0
8.166225910186768,1637,1.0,30.0,2.0
8.176222562789917,1264,1.0,30.0,2.0
8.186219930648804,1149,1.0,30.0,2.0
8.197189092636108,1280,1.0,30.0,2.0
8.206222295761108,883,1.0,30.0,2.0
8.216193437576294,1267,1.0,30.0,2.0
8.22622013092041,1808,1.0,30.0,2.0
8.236220836639404,1072,1.0,30.0,2.0
8.246222019195557,1803,1.0,30.0,2.0
8.256223917007446,830,1.0,30.0,2.0
8.26625657081604,1654,1.0,30.0,2.0
8.276225566864014,886,1.0,30.0,2.0
8.286267518997192,1093,1.0,30.0,2.0
8.296451807022095,901,1.0,30.0,2.0
8.306205987930298,1059,1.0,30.0,2.0
8.3121018409729,882,1.0,30.0,2.0
8.326215982437134,1040,1.0,30.0,2.0
8.336261987686157,794,1.0,30.0,2.0
8.346271753311157,1156,1.0,30.0,2.0
8.35623288154602,879,1.0,30.0,2.0
8.36678671836853,1104,1.0,30.0,2.0
8.372998237609863,804,1.0,30.0,2.0
8.386220693588257,1105,1.0,30.0,2.0
8.396225452423096,729,1.0,30.0,2.0
8.406236410140991,1107,1.0,30.0,2.0
8.416203022003174,667,1.0,30.0,2.0
8.426233053207397,1040,1.0,30.0,2.0
8.436195135116577,794,1.0,30.0,2.0
8.446196794509888,748,1.0,30.0,2.0
8.456241369247437,850,1.0,30.0,2.0
8.466228485107422,624,1.0,30.0,2.0
8.476223945617676,913,1.0,30.0,2.0
8.486193180084229,833,1.0,30.0,2.0
8.495372772216797,905,1.0,30.0,2.0
8.506236791610718,852,1.0,30.0,2.0
8.516895294189453,1038,1.0,30.0,2.0
8.526199579238892,882,1.0,30.0,2.0
8.536237716674805,1053,1.0,30.0,2.0
8.546194314956665,755,1.0,30.0,2.0
8.556198596954346,1258,1.0,30.0,2.0
8.566244840621948,713,1.0,30.0,2.0
8.576194763183594,1105,1.0,30.0,2.0
8.586220979690552,828,1.0,30.0,2.0
8.596196413040161,1055,1.0,30.0,2.0
8.606196403503418,735,1.0,30.0,2.0
8.616158246994019,859,1.0,30.0,2.0
8.626193761825562,625,1.0,30.0,2.0
8.63620400428772,870,1.0,30.0,2.0
8.647201299667358,1319,1.0,30.0,2.0
8.65619444847107,807,1.0,30.0,2.0
8.666181087493896,768,1.0,30.0,2.0
8.676195859909058,833,1.0,30.0,2.0
8.686230659484863,1939,1.0,30.0,2.0
8.696197986602783,772,1.0,30.0,2.0
8.70646858215332,704,1.0,30.0,2.0
8.712319612503052,954,1.0,30.0,2.0
8.726218938827515,653,1.0,30.0,2.0
8.737057447433472,881,1.0,30.0,2.0
8.745412349700928,1969,1.0,30.0,2.0
8.757144689559937,790,1.0,30.0,2.0
8.76621413230896,1517,1.0,30.0,2.0
8.776167631149292,496,1.0,30.0,2.0
8.786185503005981,1379,1.0,30.0,2.0
8.796185731887817,208,1.0,30.0,2.0
8.806241512298584,1022,1.0,30.0,2.0
8.816202163696289,2196,1.0,30.0,2.0
8.826198816299438,1632,1.0,30.0,2.0
8.836169719696045,2016,1.0,30.0,2.0
8.846196174621582,1579,1.0,30.0,2.0
8.856188774108887,1293,1.0,30.0,2.0
8.866231679916382,1295,1.0,30.0,2.0
8.876770496368408,944,1.0,30.0,2.0
8.886246919631958,1105,1.0,30.0,2.0
8.89618468284607,1039,1.0,30.0,2.0
8.906151294708252,716,1.0,30.0,2.0
8.917070388793945,969,1.0,30.0,2.0
8.927141427993774,1843,1.0,30.0,2.0
8.929771900177002,609,1.0,30.0,2.0
8.947194814682007,1634,1.0,30.0,2.0
8.95628046989441,584,1.0,30.0,2.0
8.966461181640625,1313,1.0,30.0,2.0
8.976362228393555,1781,1.0,30.0,2.0
8.987334966659546,1282,1.0,30.0,2.0
8.996346473693848,1409,1.0,30.0,2.0
9.007165908813477,1327,1.0,30.0,2.0
9.016193389892578,464,1.0,30.0,2.0
9.026168584823608,1453,1.0,30.0,2.0
9.036225080490112,925,1.0,30.0,2.0
9.047173261642456,1199,1.0,30.0,2.0
9.056166648864746,734,1.0,30.0,2.0
9.066169500350952,1694,1.0,30.0,2.0
9.076199531555176,565,1.0,30.0,2.0
9.086171388626099,1510,1.0,30.0,2.0
9.096168041229248,816,1.0,30.0,2.0
9.106194972991943,1331,1.0,30.0,2.0
9.11622405052185,810,1.0,30.0,2.0
9.1269850730896,1068,1.0,30.0,2.0
9.130049228668213,576,1.0,30.0,2.0
9.146211385726929,897,1.0,30.0,2.0
9.156205892562866,2080,1.0,30.0,2.0
9.161998987197876,1279,1.0,30.0,2.0
9.176167488098145,700,1.0,30.0,2.0
9.186176538467407,1109,1.0,30.0,2.0
9.196174383163452,1903,1.0,30.0,2.0
9.206213235855103,1105,1.0,30.0,2.0
9.216237783432007,1836,1.0,30.0,2.0
9.226169109344482,1179,1.0,30.0,2.0
9.236171245574951,1909,1.0,30.0,2.0
9.246161460876465,1088,1.0,30.0,2.0
9.256170272827148,1998,1.0,30.0,2.0
9.2661771774292,1088,1.0,30.0,2.0
9.276169538497925,2064,1.0,30.0,2.0
9.286179065704346,949,1.0,30.0,2.0
9.296209812164307,2019,1.0,30.0,2.0
9.30621075630188,890,1.0,30.0,2.0
9.316169738769531,2073,1.0,30.0,2.0
9.326174259185791,1008,1.0,30.0,2.0
9.336233615875244,1962,1.0,30.0,2.0
9.34632658958435,917,1.0,30.0,2.0
9.356162071228027,2007,1.0,30.0,2.0
9.36625051498413,1238,1.0,30.0,2.0
9.376209020614624,1968,1.0,30.0,2.0
9.386178493499756,1365,1.0,30.0,2.0
9.396531581878662,1687,1.0,30.0,2.0
9.406217336654663,1503,1.0,30.0,2.0
9.416220664978027,1253,1.0,30.0,2.0
9.426172256469727,1759,1.0,30.0,2.0
9.436203956604004,1099,1.0,30.0,2.0
9.447160720825195,1699,1.0,30.0,2.0
9.45616102218628,969,1.0,30.0,2.0
9.466163158416748,1723,1.0,30.0,2.0
9.47617793083191,865,1.0,30.0,2.0
9.486204624176025,784,1.0,30.0,2.0
9.497162342071533,1808,1.0,30.0,2.0
9.506168603897095,1634,1.0,30.0,2.0
9.51616907119751,1124,1.0,30.0,2.0
9.526209592819214,1887,1.0,30.0,2.0
9.536177158355713,1130,1.0,30.0,2.0
9.546994686126709,1818,1.0,30.0,2.0
9.557151794433594,1165,1.0,30.0,2.0
9.566213607788086,1769,1.0,30.0,2.0
9.576162815093994,1142,1.0,30.0,2.0
9.578543901443481,1623,1.0,30.0,2.0
9.596184253692627,1053,1.0,30.0,2.0
9.607158422470093,1473,1.0,30.0,2.0
9.616161823272705,880,1.0,30.0,2.0
9.616161823272705,1251,1.0,30.0,2.0
9.63617205619812,763,1.0,30.0,2.0
9.646166801452637,1079,1.0,30.0,2.0
9.656140089035034,624,1.0,30.0,2.0
9.666192770004272,912,1.0,30.0,2.0
9.676182508468628,541,1.0,30.0,2.0
9.686149835586548,816,1.0,30.0,2.0
9.696179866790771,530,1.0,30.0,2.0
9.706171035766602,787,1.0,30.0,2.0
9.716177940368652,549,1.0,30.0,2.0
9.726177453994751,1031,1.0,30.0,2.0
9.736137628555298,705,1.0,30.0,2.0
9.746164321899414,1105,1.0,30.0,2.0
9.755923986434937,633,1.0,30.0,2.0
9.766171932220459,1274,1.0,30.0,2.0
9.776139259338379,609,1.0,30.0,2.0
9.78693175315857,1252,1.0,30.0,2.0
9.79514217376709,524,1.0,30.0,2.0
9.806172132492065,1124,1.0,30.0,2.0
9.816180229187012,432,1.0,30.0,2.0
9.827138185501099,983,1.0,30.0,2.0
9.83616590499878,367,1.0,30.0,2.0
9.837162971496582,848,1.0,30.0,2.0
9.856140851974487,268,1.0,30.0,2.0
9.866180658340454,768,1.0,30.0,2.0
9.876166820526123,246,1.0,30.0,2.0
9.886157512664795,949,1.0,30.0,2.0
9.89615535736084,478,1.0,30.0,2.0
9.906835317611694,1183,1.0,30.0,2.0
9.91622543334961,528,1.0,30.0,2.0
9.926182746887207,967,1.0,30.0,2.0
9.936148405075073,374,1.0,30.0,2.0
9.946138143539429,880,1.0,30.0,2.0
9.947136402130127,68,1.0,30.0,2.0
9.966779708862305,706,1.0,30.0,2.0
9.968773603439331,368,1.0,30.0,2.0
9.986153602600098,673,1.0,30.0,2.0
9.99587869644165,83,1.0,30.0,2.0
10.00618290901184,656,1.0,30.0,2.0
10.015223979949951,95,1.0,30.0,2.0
10.026185989379883,625,1.0,30.0,2.0
10.027183771133423,93,1.0,30.0,2.0
10.046141147613525,574,1.0,30.0,2.0
10.047139167785645,97,1.0,30.0,2.0
10.066181898117065,666,1.0,30.0,2.0
10.075887203216553,99,1.0,30.0,2.0
10.08611512184143,630,1.0,30.0,2.0
10.087120532989502,75,1.0,30.0,2.0
10.10614275932312,683,1.0,30.0,2.0
10.107146263122559,62,1.0,30.0,2.0
10.126161098480225,624,1.0,30.0,2.0
10.136152505874634,184,1.0,30.0,2.0
10.146164178848267,534,1.0,30.0,2.0
10.147161960601807,69,1.0,30.0,2.0
10.166162967681885,527,1.0,30.0,2.0
10.175956010818481,37,1.0,30.0,2.0
10.17887568473816,453,1.0,30.0,2.0
10.196835279464722,295,1.0,30.0,2.0
10.207048654556274,555,1.0,30.0,2.0
10.212714672088623,107,1.0,30.0,2.0
10.222724676132202,481,1.0,30.0,2.0
10.2327241897583,272,1.0,30.0,2.0
10.242762804031372,441,1.0,30.0,2.0
10.25724720954895,139,1.0,30.0,2.0
10.258241415023804,470,1.0,30.0,2.0
10.27634882926941,240,1.0,30.0,2.0
10.286276817321777,479,1.0,30.0,2.0
10.287275552749634,210,1.0,30.0,2.0
10.306155920028687,411,1.0,30.0,2.0
10.308151721954346,210,1.0,30.0,2.0
10.326150178909302,495,1.0,30.0,2.0
10.33614444732666,181,1.0,30.0,2.0
10.346134424209595,406,1.0,30.0,2.0
10.34713339805603,0,1.0,30.0,2.0
10.366177082061768,365,1.0,30.0,2.0
10.377147674560547,1791,1.0,30.0,2.0
10.377147674560547,393,1.0,30.0,2.0
10.395806550979614,0,1.0,30.0,2.0
10.401255369186401,400,1.0,30.0,2.0
10.414304971694946,0,1.0,30.0,2.0
10.426878213882446,407,1.0,30.0,2.0
10.431541681289673,0,1.0,30.0,2.0
10.446173191070557,286,1.0,30.0,2.0
10.447190046310425,57,1.0,30.0,2.0
10.466177463531494,277,1.0,30.0,2.0
10.476155757904053,124,1.0,30.0,2.0
10.486136198043823,597,1.0,30.0,2.0
10.4871346950531,132,1.0,30.0,2.0
10.506134510040283,633,1.0,30.0,2.0
10.516134977340698,192,1.0,30.0,2.0
10.518340110778809,657,1.0,30.0,2.0
10.536155700683594,141,1.0,30.0,2.0
10.546139001846313,603,1.0,30.0,2.0
10.547142505645752,128,1.0,30.0,2.0
10.566134452819824,507,1.0,30.0,2.0
10.576145887374878,125,1.0,30.0,2.0
10.586141347885132,448,1.0,30.0,2.0
10.596141815185547,2139,1.0,30.0,2.0
10.597139835357666,347,1.0,30.0,2.0
10.614771604537964,2498,1.0,30.0,2.0
10.626776695251465,1446,1.0,30.0,2.0
10.63743543624878,2575,1.0,30.0,2.0
10.646114110946655,1648,1.0,30.0,2.0
10.65608024597168,2480,1.0,30.0,2.0
10.666166543960571,1886,1.0,30.0,2.0
10.677344799041748,2493,1.0,30.0,2.0
10.686402320861816,1490,1.0,30.0,2.0
10.696351766586304,2430,1.0,30.0,2.0
10.707272291183472,1057,1.0,30.0,2.0
10.717313051223755,2377,1.0,30.0,2.0
10.726348400115967,1351,1.0,30.0,2.0
10.736345052719116,2418,1.0,30.0,2.0
10.746325254440308,2111,1.0,30.0,2.0
10.756183385848999,2359,1.0,30.0,2.0
10.766159772872925,2143,1.0,30.0,2.0
10.77615737915039,2364,1.0,30.0,2.0
10.7861647605896,2140,1.0,30.0,2.0
10.796162605285645,2193,1.0,30.0,2.0
10.80615496635437,1829,1.0,30.0,2.0
10.816171169281006,2132,1.0,30.0,2.0
10.826140880584717,2126,1.0,30.0,2.0
10.836174488067627,2238,1.0,30.0,2.0
10.846919298171997,2017,1.0,30.0,2.0
10.856143236160278,2150,1.0,30.0,2.0
10.862611055374146,2070,1.0,30.0,2.0
10.876182317733765,2107,1.0,30.0,2.0
10.886189937591553,1979,1.0,30.0,2.0
10.896185636520386,1987,1.0,30.0,2.0
10.906155586242676,1894,1.0,30.0,2.0
10.916156530380249,1363,1.0,30.0,2.0
10.926185846328735,1858,1.0,30.0,2.0
10.927185535430908,1631,1.0,30.0,2.0
10.946187973022461,1822,1.0,30.0,2.0
10.957184314727783,1958,1.0,30.0,2.0
10.966187000274658,1799,1.0,30.0,2.0
10.97618317604065,1910,1.0,30.0,2.0
10.986168384552002,1845,1.0,30.0,2.0
10.996159553527832,1888,1.0,30.0,2.0
11.006179809570312,1617,1.0,30.0,2.0
11.016184091567993,1745,1.0,30.0,2.0
11.026187419891357,1307,1.0,30.0,2.0
11.036388635635376,1063,1.0,30.0,2.0
11.046368598937988,1062,1.0,30.0,2.0
11.054389238357544,878,1.0,30.0,2.0
11.066144704818726,1211,1.0,30.0,2.0
11.07517409324646,480,1.0,30.0,2.0
11.086183309555054,1706,1.0,30.0,2.0
11.096184730529785,2173,1.0,30.0,2.0
11.106158256530762,1790,1.0,30.0,2.0
11.116162061691284,2320,1.0,30.0,2.0
11.12618637084961,1616,1.0,30.0,2.0
11.136157035827637,2082,1.0,30.0,2.0
11.14618182182312,1555,1.0,30.0,2.0
11.156181335449219,1289,1.0,30.0,2.0
11.166181325912476,1701,1.0,30.0,2.0
11.176177024841309,1855,1.0,30.0,2.0
11.186167240142822,1492,1.0,30.0,2.0
11.19615912437439,1308,1.0,30.0,2.0
11.206156015396118,1189,1.0,30.0,2.0
11.207154035568237,909,1.0,30.0,2.0
11.226155519485474,1806,1.0,30.0,2.0
11.236154556274414,2055,1.0,30.0,2.0
11.246397018432617,1823,1.0,30.0,2.0
11.256146907806396,1286,1.0,30.0,2.0
11.263664484024048,1813,1.0,30.0,2.0
11.271677017211914,944,1.0,30.0,2.0
11.286188125610352,1653,1.0,30.0,2.0
11.295257806777954,969,1.0,30.0,2.0
11.306904554367065,1511,1.0,30.0,2.0
11.306904554367065,914,1.0,30.0,2.0
11.326181650161743,1309,1.0,30.0,2.0
11.328177213668823,948,1.0,30.0,2.0
11.346182584762573,1121,1.0,30.0,2.0
11.34718108177185,718,1.0,30.0,2.0
11.366189241409302,1116,1.0,30.0,2.0
11.3671875,720,1.0,30.0,2.0
11.386198282241821,1093,1.0,30.0,2.0
11.387197971343994,737,1.0,30.0,2.0
11.406182289123535,1036,1.0,30.0,2.0
11.407180547714233,786,1.0,30.0,2.0
11.426224708557129,1150,1.0,30.0,2.0
11.427222967147827,766,1.0,30.0,2.0
11.44659686088562,1098,1.0,30.0,2.0
11.453890800476074,781,1.0,30.0,2.0
11.461617708206177,959,1.0,30.0,2.0
11.471589803695679,601,1.0,30.0,2.0
11.478421211242676,901,1.0,30.0,2.0
11.497119188308716,1837,1.0,30.0,2.0
11.506080865859985,902,1.0,30.0,2.0
11.516406297683716,1865,1.0,30.0,2.0
11.51740312576294,693,1.0,30.0,2.0
11.5363609790802,1821,1.0,30.0,2.0
11.53736162185669,654,1.0,30.0,2.0
11.556157350540161,1902,1.0,30.0,2.0
11.55715560913086,683,1.0,30.0,2.0
11.567173480987549,698,1.0,30.0,2.0
11.577176094055176,753,1.0,30.0,2.0
11.587173700332642,659,1.0,30.0,2.0
11.59717345237732,693,1.0,30.0,2.0
11.616161584854126,1830,1.0,30.0,2.0
11.617159605026245,631,1.0,30.0,2.0
11.636227130889893,1923,1.0,30.0,2.0
11.646222352981567,1931,1.0,30.0,2.0
11.656229496002197,1847,1.0,30.0,2.0
11.666807174682617,2017,1.0,30.0,2.0
11.673398971557617,1822,1.0,30.0,2.0
11.686164855957031,1968,1.0,30.0,2.0
11.695921421051025,695,1.0,30.0,2.0
11.706235647201538,1808,1.0,30.0,2.0
11.715267181396484,464,1.0,30.0,2.0
11.726221799850464,1558,1.0,30.0,2.0
11.726221799850464,454,1.0,30.0,2.0
11.746227741241455,1318,1.0,30.0,2.0
11.756228923797607,2031,1.0,30.0,2.0
11.766227722167969,1519,1.0,30.0,2.0
11.776223421096802,2000,1.0,30.0,2.0
11.78622555732727,1360,1.0,30.0,2.0
11.796180963516235,1705,1.0,30.0,2.0
11.806158542633057,1150,1.0,30.0,2.0
11.816198110580444,1299,1.0,30.0,2.0
11.826197862625122,1022,1.0,30.0,2.0
11.836180686950684,1317,1.0,30.0,2.0
11.838176250457764,851,1.0,30.0,2.0
11.856199264526367,1285,1.0,30.0,2.0
11.866196632385254,1659,1.0,30.0,2.0
11.876494646072388,1467,1.0,30.0,2.0
11.886148452758789,1410,1.0,30.0,2.0
11.896171569824219,1268,1.0,30.0,2.0
11.906180143356323,1098,1.0,30.0,2.0
11.91141963005066,1043,1.0,30.0,2.0
11.926199913024902,1038,1.0,30.0,2.0
11.926199913024902,800,1.0,30.0,2.0
11.93711805343628,836,1.0,30.0,2.0
11.95620346069336,1867,1.0,30.0,2.0
11.957201719284058,640,1.0,30.0,2.0
11.976080894470215,1551,1.0,30.0,2.0
11.986183643341064,1965,1.0,30.0,2.0
11.996182441711426,1210,1.0,30.0,2.0
12.006157159805298,2035,1.0,30.0,2.0
12.016157388687134,1057,1.0,30.0,2.0
12.026199579238892,1598,1.0,30.0,2.0
12.036153554916382,1499,1.0,30.0,2.0
12.046199083328247,1060,1.0,30.0,2.0
12.056199073791504,1943,1.0,30.0,2.0
12.06619906425476,1040,1.0,30.0,2.0
12.076200246810913,1725,1.0,30.0,2.0
12.086717128753662,1002,1.0,30.0,2.0
12.096215009689331,1354,1.0,30.0,2.0
12.106183528900146,1021,1.0,30.0,2.0
12.116142511367798,1345,1.0,30.0,2.0
12.126156091690063,1072,1.0,30.0,2.0
12.128175497055054,1119,1.0,30.0,2.0
12.138187646865845,835,1.0,30.0,2.0
12.148187637329102,1008,1.0,30.0,2.0
12.158187627792358,939,1.0,30.0,2.0
12.16818881034851,1263,1.0,30.0,2.0
12.178188800811768,930,1.0,30.0,2.0
12.188186645507812,1457,1.0,30.0,2.0
12.198188066482544,927,1.0,30.0,2.0
12.208188772201538,1467,1.0,30.0,2.0
12.21827220916748,960,1.0,30.0,2.0
12.236160278320312,1246,1.0,30.0,2.0
12.237158060073853,954,1.0,30.0,2.0
12.247166872024536,1584,1.0,30.0,2.0
12.257167100906372,910,1.0,30.0,2.0
12.267168045043945,1248,1.0,30.0,2.0
12.285896301269531,863,1.0,30.0,2.0
12.295207977294922,1606,1.0,30.0,2.0
12.3042151927948,880,1.0,30.0,2.0
12.310339212417603,1563,1.0,30.0,2.0
12.319314956665039,859,1.0,30.0,2.0
12.328176259994507,1597,1.0,30.0,2.0
12.339418411254883,848,1.0,30.0,2.0
12.35615587234497,1375,1.0,30.0,2.0
12.35715389251709,823,1.0,30.0,2.0
12.36716341972351,1430,1.0,30.0,2.0
12.377197027206421,833,1.0,30.0,2.0
12.387163639068604,1449,1.0,30.0,2.0
12.397163391113281,771,1.0,30.0,2.0
12.407164573669434,1456,1.0,30.0,2.0
12.41716456413269,669,1.0,30.0,2.0
12.42858600616455,1435,1.0,30.0,2.0
12.438602685928345,658,1.0,30.0,2.0
12.448602676391602,1328,1.0,30.0,2.0
12.45860242843628,683,1.0,30.0,2.0
12.468602657318115,1033,1.0,30.0,2.0
12.48562240600586,625,1.0,30.0,2.0
12.496790885925293,1397,1.0,30.0,2.0
12.505430698394775,2211,1.0,30.0,2.0
12.511715173721313,1470,1.0,30.0,2.0
12.520670175552368,2224,1.0,30.0,2.0
12.535958528518677,1545,1.0,30.0,2.0
12.545697212219238,2238,1.0,30.0,2.0
12.555715084075928,1776,1.0,30.0,2.0
12.565714836120605,1934,1.0,30.0,2.0
12.5759859085083,1651,1.0,30.0,2.0
12.5759859085083,1934,1.0,30.0,2.0
12.586807012557983,1296,1.0,30.0,2.0
12.596808433532715,539,1.0,30.0,2.0
12.606806516647339,1297,1.0,30.0,2.0
12.616821050643921,1648,1.0,30.0,2.0
12.626807928085327,1324,1.0,30.0,2.0
12.636806964874268,1781,1.0,30.0,2.0
12.646807193756104,1344,1.0,30.0,2.0
12.656808137893677,703,1.0,30.0,2.0
12.666806936264038,1347,1.0,30.0,2.0
12.677932739257812,1891,1.0,30.0,2.0
12.687949419021606,1388,1.0,30.0,2.0
12.69796633720398,2087,1.0,30.0,2.0
12.710320234298706,1419,1.0,30.0,2.0
12.725127696990967,2099,1.0,30.0,2.0
12.729281425476074,1387,1.0,30.0,2.0
12.74465537071228,2071,1.0,30.0,2.0
12.752663135528564,1290,1.0,30.0,2.0
12.762327194213867,2064,1.0,30.0,2.0
12.775925159454346,1287,1.0,30.0,2.0
12.785948514938354,2007,1.0,30.0,2.0
12.795933723449707,1241,1.0,30.0,2.0
12.806198120117188,1954,1.0,30.0,2.0
12.807197332382202,1249,1.0,30.0,2.0
12.817210912704468,1952,1.0,30.0,2.0
12.82721209526062,1182,1.0,30.0,2.0
12.837212324142456,1913,1.0,30.0,2.0
12.848710298538208,1187,1.0,30.0,2.0
12.858734369277954,1907,1.0,30.0,2.0
12.868724346160889,1151,1.0,30.0,2.0
12.885936260223389,1856,1.0,30.0,2.0
12.89594841003418,1072,1.0,30.0,2.0
12.905948400497437,1760,1.0,30.0,2.0
12.916244745254517,1036,1.0,30.0,2.0
12.925502300262451,1646,1.0,30.0,2.0
12.928987503051758,960,1.0,30.0,2.0
12.945537090301514,1695,1.0,30.0,2.0
12.954564332962036,994,1.0,30.0,2.0
12.961292028427124,1632,1.0,30.0,2.0
12.971304178237915,926,1.0,30.0,2.0
12.981623411178589,1583,1.0,30.0,2.0
12.994674921035767,906,1.0,30.0,2.0
13.000772953033447,1611,1.0,30.0,2.0
13.01108694076538,769,1.0,30.0,2.0
13.022042036056519,1565,1.0,30.0,2.0
13.035924434661865,766,1.0,30.0,2.0
13.045933485031128,1499,1.0,30.0,2.0
13.055932760238647,765,1.0,30.0,2.0
13.065932989120483,1481,1.0,30.0,2.0
13.075935125350952,702,1.0,30.0,2.0
13.086260795593262,1463,1.0,30.0,2.0
13.095932960510254,717,1.0,30.0,2.0
13.105978727340698,1423,1.0,30.0,2.0
13.115944385528564,673,1.0,30.0,2.0
13.126110553741455,1316,1.0,30.0,2.0
13.135501146316528,629,1.0,30.0,2.0
13.145998239517212,1301,1.0,30.0,2.0
13.154002666473389,678,1.0,30.0,2.0
13.161170482635498,1354,1.0,30.0,2.0
13.170145750045776,641,1.0,30.0,2.0
13.178913593292236,1270,1.0,30.0,2.0
13.188929319381714,566,1.0,30.0,2.0
13.198929071426392,1251,1.0,30.0,2.0
13.211056232452393,629,1.0,30.0,2.0
13.222158193588257,1192,1.0,30.0,2.0
13.232165336608887,593,1.0,30.0,2.0
13.242166757583618,1201,1.0,30.0,2.0
13.2521653175354,507,1.0,30.0,2.0
13.262166500091553,1362,1.0,30.0,2.0
13.275899887084961,2016,1.0,30.0,2.0
13.285913944244385,1759,1.0,30.0,2.0
13.295908451080322,2319,1.0,30.0,2.0
13.305911540985107,1440,1.0,30.0,2.0
13.315908908843994,2254,1.0,30.0,2.0
13.317293882369995,1323,1.0,30.0,2.0
13.335622310638428,745,1.0,30.0,2.0
13.345783233642578,1342,1.0,30.0,2.0
13.356163263320923,477,1.0,30.0,2.0
13.361138820648193,1465,1.0,30.0,2.0
13.369409561157227,542,1.0,30.0,2.0
13.378875494003296,1458,1.0,30.0,2.0
13.388886451721191,549,1.0,30.0,2.0
13.398887634277344,1456,1.0,30.0,2.0
13.408886194229126,573,1.0,30.0,2.0
13.418887615203857,1453,1.0,30.0,2.0
13.42888617515564,525,1.0,30.0,2.0
13.438886165618896,1495,1.0,30.0,2.0
13.455910921096802,510,1.0,30.0,2.0
13.465923309326172,1483,1.0,30.0,2.0
13.475919485092163,2064,1.0,30.0,2.0
13.48617959022522,1333,1.0,30.0,2.0
13.48617959022522,2182,1.0,30.0,2.0
13.497021913528442,1389,1.0,30.0,2.0
13.5145583152771,2061,1.0,30.0,2.0
13.52457332611084,1396,1.0,30.0,2.0
13.534573793411255,2025,1.0,30.0,2.0
13.545685768127441,1370,1.0,30.0,2.0
13.555239200592041,2125,1.0,30.0,2.0
13.561506271362305,1327,1.0,30.0,2.0
13.570487022399902,2055,1.0,30.0,2.0
13.585739612579346,1248,1.0,30.0,2.0
13.595484972000122,2020,1.0,30.0,2.0
13.605706691741943,1187,1.0,30.0,2.0
13.615904092788696,1953,1.0,30.0,2.0
13.625845909118652,1171,1.0,30.0,2.0
13.635857820510864,1909,1.0,30.0,2.0
13.645978689193726,1147,1.0,30.0,2.0
13.646974086761475,1854,1.0,30.0,2.0
13.656971454620361,1131,1.0,30.0,2.0
13.666971683502197,1843,1.0,30.0,2.0
13.676971435546875,1100,1.0,30.0,2.0
13.688084602355957,1776,1.0,30.0,2.0
13.69808316230774,1089,1.0,30.0,2.0
13.708083152770996,1677,1.0,30.0,2.0
13.721153020858765,1060,1.0,30.0,2.0
13.731165170669556,1696,1.0,30.0,2.0
13.741150140762329,962,1.0,30.0,2.0
13.753891944885254,1361,1.0,30.0,2.0
13.765183210372925,875,1.0,30.0,2.0
13.767179012298584,1318,1.0,30.0,2.0
13.779255151748657,817,1.0,30.0,2.0
13.795950889587402,1362,1.0,30.0,2.0
13.803962230682373,653,1.0,30.0,2.0
13.811987161636353,1286,1.0,30.0,2.0
13.821989297866821,573,1.0,30.0,2.0
13.831988096237183,1313,1.0,30.0,2.0
13.841988325119019,553,1.0,30.0,2.0
13.851989269256592,1295,1.0,30.0,2.0
13.864334344863892,541,1.0,30.0,2.0
13.87435007095337,1306,1.0,30.0,2.0
13.885924577713013,540,1.0,30.0,2.0
13.895933151245117,1243,1.0,30.0,2.0
13.90593695640564,518,1.0,30.0,2.0
13.915936946868896,1217,1.0,30.0,2.0
13.92210054397583,502,1.0,30.0,2.0
13.932106494903564,1168,1.0,30.0,2.0
13.942106246948242,447,1.0,30.0,2.0
13.952107667922974,1195,1.0,30.0,2.0
13.964646339416504,438,1.0,30.0,2.0
13.975353479385376,1182,1.0,30.0,2.0
13.97864580154419,410,1.0,30.0,2.0
13.99334168434143,1403,1.0,30.0,2.0
14.002310037612915,355,1.0,30.0,2.0
14.011146306991577,1552,1.0,30.0,2.0
14.025794267654419,1680,1.0,30.0,2.0
14.029629230499268,1045,1.0,30.0,2.0
14.040809154510498,967,1.0,30.0,2.0
14.050826072692871,1774,1.0,30.0,2.0
14.060826301574707,662,1.0,30.0,2.0
14.07082748413086,2032,1.0,30.0,2.0
14.08082628250122,911,1.0,30.0,2.0
14.090826511383057,1927,1.0,30.0,2.0
14.100827932357788,896,1.0,30.0,2.0
14.110827445983887,1722,1.0,30.0,2.0
14.122225522994995,979,1.0,30.0,2.0
14.132264614105225,1301,1.0,30.0,2.0
14.14224100112915,880,1.0,30.0,2.0
14.147981882095337,1239,1.0,30.0,2.0
14.157985210418701,705,1.0,30.0,2.0
14.175453424453735,1001,1.0,30.0,2.0
14.180387020111084,477,1.0,30.0,2.0
14.194576501846313,1659,1.0,30.0,2.0
14.204395532608032,1184,1.0,30.0,2.0
14.209977626800537,1303,1.0,30.0,2.0
14.218958616256714,957,1.0,30.0,2.0
14.228889226913452,1282,1.0,30.0,2.0
14.238918781280518,432,1.0,30.0,2.0
14.24890661239624,1308,1.0,30.0,2.0
14.258900880813599,437,1.0,30.0,2.0
14.268906593322754,1062,1.0,30.0,2.0
14.278899908065796,445,1.0,30.0,2.0
14.288900136947632,1221,1.0,30.0,2.0
14.298921585083008,522,1.0,30.0,2.0
14.308902263641357,1375,1.0,30.0,2.0
14.318901300430298,589,1.0,30.0,2.0
14.32889986038208,1445,1.0,30.0,2.0
14.338917016983032,543,1.0,30.0,2.0
14.348901987075806,1427,1.0,30.0,2.0
14.35893177986145,521,1.0,30.0,2.0
14.370261669158936,1354,1.0,30.0,2.0
14.384320259094238,508,1.0,30.0,2.0
14.395920753479004,1333,1.0,30.0,2.0
14.403929948806763,506,1.0,30.0,2.0
14.412437677383423,1339,1.0,30.0,2.0
14.42044973373413,1013,1.0,30.0,2.0
14.42865252494812,1104,1.0,30.0,2.0
14.438664197921753,914,1.0,30.0,2.0
14.448662281036377,1042,1.0,30.0,2.0
14.458662271499634,908,1.0,30.0,2.0
14.46866226196289,970,1.0,30.0,2.0
14.478662252426147,819,1.0,30.0,2.0
14.488662242889404,998,1.0,30.0,2.0
14.498662233352661,810,1.0,30.0,2.0
14.508662223815918,954,1.0,30.0,2.0
14.518663883209229,781,1.0,30.0,2.0
14.53534722328186,847,1.0,30.0,2.0
14.536350011825562,595,1.0,30.0,2.0
14.547579526901245,800,1.0,30.0,2.0
14.55759334564209,576,1.0,30.0,2.0
14.575925350189209,755,1.0,30.0,2.0
14.585950136184692,529,1.0,30.0,2.0
14.59608769416809,747,1.0,30.0,2.0
14.598980188369751,578,1.0,30.0,2.0
14.613860845565796,775,1.0,30.0,2.0
14.621874570846558,947,1.0,30.0,2.0
14.629087448120117,1757,1.0,30.0,2.0
14.64430046081543,1875,1.0,30.0,2.0
14.655242681503296,1594,1.0,30.0,2.0
14.665241479873657,1296,1.0,30.0,2.0
14.675240993499756,1374,1.0,30.0,2.0
14.677399158477783,1191,1.0,30.0,2.0
14.688572883605957,1297,1.0,30.0,2.0
14.698590993881226,1174,1.0,30.0,2.0
14.711952924728394,1250,1.0,30.0,2.0
14.722814083099365,1027,1.0,30.0,2.0
14.73592495918274,1156,1.0,30.0,2.0
14.745934009552002,1008,1.0,30.0,2.0
14.755937576293945,1123,1.0,30.0,2.0
14.765942811965942,947,1.0,30.0,2.0
14.775936126708984,1035,1.0,30.0,2.0
14.786170721054077,882,1.0,30.0,2.0
14.787168025970459,937,1.0,30.0,2.0
14.801926374435425,686,1.0,30.0,2.0
14.815521478652954,876,1.0,30.0,2.0
14.81836485862732,650,1.0,30.0,2.0
14.829047203063965,745,1.0,30.0,2.0
14.845935106277466,522,1.0,30.0,2.0
14.853944778442383,593,1.0,30.0,2.0
14.861969470977783,493,1.0,30.0,2.0
14.873380184173584,534,1.0,30.0,2.0
14.88426423072815,490,1.0,30.0,2.0
14.894235849380493,558,1.0,30.0,2.0
14.904234886169434,475,1.0,30.0,2.0
14.915602207183838,555,1.0,30.0,2.0
14.925905704498291,429,1.0,30.0,2.0
14.935909032821655,551,1.0,30.0,2.0
14.945913076400757,407,1.0,30.0,2.0
14.955912828445435,543,1.0,30.0,2.0
14.965909242630005,409,1.0,30.0,2.0
14.976145267486572,499,1.0,30.0,2.0
14.977141380310059,413,1.0,30.0,2.0
14.98725152015686,483,1.0,30.0,2.0
14.99821662902832,330,1.0,30.0,2.0
15.010737180709839,459,1.0,30.0,2.0
15.018834352493286,257,1.0,30.0,2.0
15.034425020217896,403,1.0,30.0,2.0
15.046802997589111,277,1.0,30.0,2.0
15.055989503860474,816,1.0,30.0,2.0
15.06130838394165,1303,1.0,30.0,2.0
15.075899362564087,1489,1.0,30.0,2.0
15.085912227630615,1729,1.0,30.0,2.0
15.095907926559448,1457,1.0,30.0,2.0
15.105911493301392,1376,1.0,30.0,2.0
15.115910530090332,1081,1.0,30.0,2.0
15.125910758972168,945,1.0,30.0,2.0
15.126299381256104,848,1.0,30.0,2.0
15.137285947799683,789,1.0,30.0,2.0
15.14728593826294,706,1.0,30.0,2.0
15.157286405563354,640,1.0,30.0,2.0
15.16728925704956,545,1.0,30.0,2.0
15.17728567123413,448,1.0,30.0,2.0
15.187285900115967,464,1.0,30.0,2.0
15.197287559509277,368,1.0,30.0,2.0
15.207289457321167,394,1.0,30.0,2.0
15.217285871505737,368,1.0,30.0,2.0
15.23073673248291,349,1.0,30.0,2.0
15.244754076004028,320,1.0,30.0,2.0
15.252764463424683,313,1.0,30.0,2.0
15.265931367874146,320,1.0,30.0,2.0
15.273941040039062,266,1.0,30.0,2.0
15.277395963668823,297,1.0,30.0,2.0
15.289913654327393,272,1.0,30.0,2.0
15.299929141998291,247,1.0,30.0,2.0
15.309929132461548,247,1.0,30.0,2.0
15.319936513900757,254,1.0,30.0,2.0
15.329928874969482,240,1.0,30.0,2.0
15.339929103851318,233,1.0,30.0,2.0
15.349928855895996,203,1.0,30.0,2.0
15.35992956161499,218,1.0,30.0,2.0
15.36992883682251,4095,1.0,30.0,2.0
15.381350755691528,208,1.0,30.0,2.0
15.395899295806885,1815,1.0,30.0,2.0
15.406063079833984,203,1.0,30.0,2.0
15.4160795211792,125,1.0,30.0,2.0
15.426079750061035,192,1.0,30.0,2.0
15.436093807220459,147,1.0,30.0,2.0
15.446248292922974,191,1.0,30.0,2.0
15.456058740615845,146,1.0,30.0,2.0
15.46212124824524,208,1.0,30.0,2.0
15.470128536224365,127,1.0,30.0,2.0
15.48541259765625,187,1.0,30.0,2.0
15.495136022567749,117,1.0,30.0,2.0
15.505897760391235,181,1.0,30.0,2.0
15.515910148620605,111,1.0,30.0,2.0
15.525909900665283,195,1.0,30.0,2.0
15.527237892150879,87,1.0,30.0,2.0
15.53725814819336,182,1.0,30.0,2.0
15.547244548797607,915,1.0,30.0,2.0
15.558598756790161,178,1.0,30.0,2.0
15.575345516204834,0,1.0,30.0,2.0
15.57862138748169,195,1.0,30.0,2.0
15.588630437850952,64,1.0,30.0,2.0
15.598629474639893,105,1.0,30.0,2.0
15.608630418777466,37,1.0,30.0,2.0
15.618630409240723,43,1.0,30.0,2.0
15.62863278388977,34,1.0,30.0,2.0
15.638629913330078,146,1.0,30.0,2.0
15.648629903793335,32,1.0,30.0,2.0
15.665234327316284,112,1.0,30.0,2.0
15.670274257659912,13,1.0,30.0,2.0
15.677798748016357,144,1.0,30.0,2.0
15.693051815032959,0,1.0,30.0,2.0
15.70313572883606,139,1.0,30.0,2.0
15.71172285079956,0,1.0,30.0,2.0
15.721739292144775,156,1.0,30.0,2.0
15.731739044189453,0,1.0,30.0,2.0
15.74192190170288,145,1.0,30.0,2.0
15.752856969833374,0,1.0,30.0,2.0
15.762891292572021,144,1.0,30.0,2.0
15.772854804992676,0,1.0,30.0,2.0
15.782855987548828,146,1.0,30.0,2.0
15.79592227935791,0,1.0,30.0,2.0
15.805935382843018,66,1.0,30.0,2.0
15.815934181213379,0,1.0,30.0,2.0
15.817171573638916,144,1.0,30.0,2.0
15.827189207077026,0,1.0,30.0,2.0
15.837186813354492,203,1.0,30.0,2.0
15.847188234329224,0,1.0,30.0,2.0
15.857189178466797,218,1.0,30.0,2.0
15.87507176399231,0,1.0,30.0,2.0
15.87947964668274,184,1.0,30.0,2.0
15.896105527877808,0,1.0,30.0,2.0
15.90510892868042,150,1.0,30.0,2.0
15.912787675857544,0,1.0,30.0,2.0
15.925925493240356,113,1.0,30.0,2.0
15.935937643051147,75,1.0,30.0,2.0
15.945938110351562,66,1.0,30.0,2.0
15.955937623977661,66,1.0,30.0,2.0
15.965938091278076,48,1.0,30.0,2.0
15.975936889648438,61,1.0,30.0,2.0
15.985938310623169,43,1.0,30.0,2.0
15.995938062667847,48,1.0,30.0,2.0
16.005937576293945,24,1.0,30.0,2.0
16.01593828201294,48,1.0,30.0,2.0
16.0259370803833,0,1.0,30.0,2.0
16.036181449890137,49,1.0,30.0,2.0
16.04592251777649,0,1.0,30.0,2.0
16.055931568145752,48,1.0,30.0,2.0
16.065934896469116,0,1.0,30.0,2.0
16.06722903251648,51,1.0,30.0,2.0
16.08584499359131,0,1.0,30.0,2.0
16.09522008895874,55,1.0,30.0,2.0
16.10323452949524,2272,1.0,30.0,2.0
16.109613180160522,80,1.0,30.0,2.0
16.119606971740723,2432,1.0,30.0,2.0
16.128358840942383,73,1.0,30.0,2.0
16.138378620147705,742,1.0,30.0,2.0
16.15592312812805,45,1.0,30.0,2.0
16.165935754776,0,1.0,30.0,2.0
16.175931930541992,35,1.0,30.0,2.0
16.185935497283936,0,1.0,30.0,2.0
16.195935487747192,25,1.0,30.0,2.0
16.20593500137329,2083,1.0,30.0,2.0
16.215935468673706,16,1.0,30.0,2.0
16.225935459136963,2319,1.0,30.0,2.0
16.236048698425293,18,1.0,30.0,2.0
16.237081289291382,2417,1.0,30.0,2.0
16.247339725494385,0,1.0,30.0,2.0
16.258331298828125,2479,1.0,30.0,2.0
16.275922536849976,0,1.0,30.0,2.0
16.285937309265137,2438,1.0,30.0,2.0
16.296104192733765,0,1.0,30.0,2.0
16.305695295333862,2303,1.0,30.0,2.0
16.310999393463135,0,1.0,30.0,2.0
16.32622528076172,2403,1.0,30.0,2.0
16.33523392677307,0,1.0,30.0,2.0
16.344971895217896,2428,1.0,30.0,2.0
16.355896949768066,0,1.0,30.0,2.0
16.365909099578857,2407,1.0,30.0,2.0
16.375905513763428,0,1.0,30.0,2.0
16.385915279388428,2405,1.0,30.0,2.0
16.395909309387207,0,1.0,30.0,2.0
16.39824104309082,2325,1.0,30.0,2.0
16.408257007598877,0,1.0,30.0,2.0
16.41826891899109,2305,1.0,30.0,2.0
16.428258419036865,0,1.0,30.0,2.0
16.438257217407227,2267,1.0,30.0,2.0
16.44825768470764,0,1.0,30.0,2.0
16.458256006240845,2163,1.0,30.0,2.0
16.468256950378418,0,1.0,30.0,2.0
16.47825789451599,2184,1.0,30.0,2.0
16.48825716972351,0,1.0,30.0,2.0
16.505232095718384,2160,1.0,30.0,2.0
16.51182770729065,0,1.0,30.0,2.0
16.526273488998413,2128,1.0,30.0,2.0
16.53524684906006,0,1.0,30.0,2.0
16.544962406158447,2097,1.0,30.0,2.0
16.554977893829346,10,1.0,30.0,2.0
16.564976930618286,2083,1.0,30.0,2.0
16.57535672187805,0,1.0,30.0,2.0
16.58213996887207,1978,1.0,30.0,2.0
16.593756914138794,16,1.0,30.0,2.0
16.600773334503174,2000,1.0,30.0,2.0
16.610788345336914,14,1.0,30.0,2.0
16.620787143707275,1983,1.0,30.0,2.0
16.63216996192932,13,1.0,30.0,2.0
16.645898818969727,1949,1.0,30.0,2.0
16.655906915664673,0,1.0,30.0,2.0
16.66590714454651,1934,1.0,30.0,2.0
16.67591118812561,0,1.0,30.0,2.0
16.685910940170288,1872,1.0,30.0,2.0
16.695910692214966,0,1.0,30.0,2.0
16.70591115951538,1810,1.0,30.0,2.0
16.716547966003418,0,1.0,30.0,2.0
16.72540545463562,1803,1.0,30.0,2.0
16.72725224494934,434,1.0,30.0,2.0
16.745283603668213,1747,1.0,30.0,2.0
16.753299713134766,1166,1.0,30.0,2.0
16.76048517227173,1727,1.0,30.0,2.0
16.776063442230225,1327,1.0,30.0,2.0
16.77706003189087,1708,1.0,30.0,2.0
16.788300275802612,976,1.0,30.0,2.0
16.798310041427612,1680,1.0,30.0,2.0
16.80831003189087,1460,1.0,30.0,2.0
16.818310022354126,1633,1.0,30.0,2.0
16.828311681747437,227,1.0,30.0,2.0
16.83831000328064,1104,1.0,30.0,2.0
16.848310232162476,0,1.0,30.0,2.0
16.858311414718628,784,1.0,30.0,2.0
16.86830997467041,699,1.0,30.0,2.0
16.87831401824951,1997,1.0,30.0,2.0
16.888309955596924,2495,1.0,30.0,2.0
16.900716066360474,1975,1.0,30.0,2.0
16.910739421844482,2420,1.0,30.0,2.0
16.926192045211792,1878,1.0,30.0,2.0
16.93337368965149,2480,1.0,30.0,2.0
16.945837020874023,1710,1.0,30.0,2.0
16.953863859176636,2475,1.0,30.0,2.0
16.960983514785767,1551,1.0,30.0,2.0
16.969012022018433,2416,1.0,30.0,2.0
16.97706699371338,1376,1.0,30.0,2.0
16.98706841468811,2453,1.0,30.0,2.0
16.997087240219116,1139,1.0,30.0,2.0
17.00707173347473,1037,1.0,30.0,2.0
17.017067909240723,1435,1.0,30.0,2.0
17.02709698677063,2873,1.0,30.0,2.0
17.0459246635437,1264,1.0,30.0,2.0
17.055936574935913,3063,1.0,30.0,2.0
17.06594228744507,1287,1.0,30.0,2.0
17.07593560218811,3003,1.0,30.0,2.0
17.08593726158142,1211,1.0,30.0,2.0
17.095938682556152,2931,1.0,30.0,2.0
17.106070041656494,1232,1.0,30.0,2.0
17.113455772399902,2578,1.0,30.0,2.0
17.124313354492188,1206,1.0,30.0,2.0
17.13592767715454,2398,1.0,30.0,2.0
17.145668029785156,1181,1.0,30.0,2.0
17.14913821220398,2403,1.0,30.0,2.0
17.162946939468384,1018,1.0,30.0,2.0
17.17610502243042,2312,1.0,30.0,2.0
17.186113834381104,1013,1.0,30.0,2.0
17.194092273712158,2218,1.0,30.0,2.0
17.205923795700073,993,1.0,30.0,2.0
17.215936183929443,2187,1.0,30.0,2.0
17.22594928741455,982,1.0,30.0,2.0
17.2359356880188,2412,1.0,30.0,2.0
17.24593496322632,945,1.0,30.0,2.0
17.256186723709106,2512,1.0,30.0,2.0
17.256186723709106,941,1.0,30.0,2.0
17.267173528671265,2432,1.0,30.0,2.0
17.277199506759644,880,1.0,30.0,2.0
17.287173748016357,1827,1.0,30.0,2.0
17.297172784805298,853,1.0,30.0,2.0
17.307194232940674,1664,1.0,30.0,2.0
17.31717300415039,885,1.0,30.0,2.0
17.327173471450806,1535,1.0,30.0,2.0
17.34571409225464,879,1.0,30.0,2.0
17.35199522972107,1580,1.0,30.0,2.0
17.361897706985474,1253,1.0,30.0,2.0
17.376074075698853,1440,1.0,30.0,2.0
17.386088848114014,1376,1.0,30.0,2.0
17.39512538909912,1449,1.0,30.0,2.0
17.405532360076904,1503,1.0,30.0,2.0
17.40652894973755,1424,1.0,30.0,2.0
17.41740107536316,1318,1.0,30.0,2.0
17.42739963531494,1408,1.0,30.0,2.0
17.4374258518219,1456,1.0,30.0,2.0
17.448614358901978,1318,1.0,30.0,2.0
17.458611249923706,1594,1.0,30.0,2.0
17.468618154525757,1233,1.0,30.0,2.0
17.47861123085022,1446,1.0,30.0,2.0
17.488610982894897,1210,1.0,30.0,2.0
17.49861216545105,1744,1.0,30.0,2.0
17.50861096382141,1185,1.0,30.0,2.0
17.518611192703247,1830,1.0,30.0,2.0
17.528611183166504,1166,1.0,30.0,2.0
17.538612604141235,1835,1.0,30.0,2.0
17.555673599243164,1041,1.0,30.0,2.0
17.561442852020264,1853,1.0,30.0,2.0
17.57602834701538,1054,1.0,30.0,2.0
17.581082105636597,632,1.0,30.0,2.0
17.59592080116272,1085,1.0,30.0,2.0
17.60593605041504,609,1.0,30.0,2.0
17.616111516952515,1072,1.0,30.0,2.0
17.625892400741577,1896,1.0,30.0,2.0
17.627403259277344,1299,1.0,30.0,2.0
17.63741445541382,1697,1.0,30.0,2.0
17.647414445877075,1037,1.0,30.0,2.0
17.65744972229004,1274,1.0,30.0,2.0
17.667428970336914,1023,1.0,30.0,2.0
17.67741584777832,1196,1.0,30.0,2.0
17.687426805496216,998,1.0,30.0,2.0
17.697439432144165,1809,1.0,30.0,2.0
17.707414388656616,790,1.0,30.0,2.0
17.717414379119873,1822,1.0,30.0,2.0
17.735924243927002,1021,1.0,30.0,2.0
17.745936632156372,1438,1.0,30.0,2.0
17.755945682525635,986,1.0,30.0,2.0
17.76610827445984,710,1.0,30.0,2.0
17.7760488986969,1182,1.0,30.0,2.0
17.781519651412964,2002,1.0,30.0,2.0
17.795894145965576,1039,1.0,30.0,2.0
17.803904056549072,1693,1.0,30.0,2.0
17.81055736541748,939,1.0,30.0,2.0
17.81856679916382,945,1.0,30.0,2.0
17.82659673690796,899,1.0,30.0,2.0
17.83659815788269,1616,1.0,30.0,2.0
17.846598148345947,870,1.0,30.0,2.0
17.85659956932068,1594,1.0,30.0,2.0
17.866599559783936,906,1.0,30.0,2.0
17.876599550247192,1587,1.0,30.0,2.0
17.886624574661255,1200,1.0,30.0,2.0
17.896599531173706,1564,1.0,30.0,2.0
17.915899753570557,1844,1.0,30.0,2.0
17.925912380218506,1523,1.0,30.0,2.0
17.935912370681763,1757,1.0,30.0,2.0
17.937320232391357,1434,1.0,30.0,2.0
17.94731616973877,1712,1.0,30.0,2.0
17.95731830596924,1782,1.0,30.0,2.0
17.967318773269653,1604,1.0,30.0,2.0
17.98561191558838,1457,1.0,30.0,2.0
17.992894649505615,1598,1.0,30.0,2.0
18.001593112945557,1451,1.0,30.0,2.0
18.015920400619507,1552,1.0,30.0,2.0
18.026034593582153,1317,1.0,30.0,2.0
18.02694010734558,1515,1.0,30.0,2.0
18.037793159484863,1259,1.0,30.0,2.0
18.047807216644287,1472,1.0,30.0,2.0
18.060126066207886,1232,1.0,30.0,2.0
18.07013487815857,1490,1.0,30.0,2.0
18.080135107040405,1191,1.0,30.0,2.0
18.09150218963623,1414,1.0,30.0,2.0
18.10152316093445,1198,1.0,30.0,2.0
18.1115243434906,1397,1.0,30.0,2.0
18.121523141860962,1156,1.0,30.0,2.0
18.135109424591064,1264,1.0,30.0,2.0
18.13974142074585,1127,1.0,30.0,2.0
18.14974617958069,1231,1.0,30.0,2.0
18.159746170043945,1136,1.0,30.0,2.0
18.16974639892578,1161,1.0,30.0,2.0
18.17976450920105,1040,1.0,30.0,2.0
18.19401478767395,1318,1.0,30.0,2.0
18.197575092315674,1030,1.0,30.0,2.0
18.215956211090088,1388,1.0,30.0,2.0
18.225903511047363,1008,1.0,30.0,2.0
18.23598289489746,1467,1.0,30.0,2.0
18.24380087852478,975,1.0,30.0,2.0
18.251829624176025,1455,1.0,30.0,2.0
18.25985622406006,886,1.0,30.0,2.0
18.272014141082764,1456,1.0,30.0,2.0
18.28210139274597,910,1.0,30.0,2.0
18.292107105255127,1410,1.0,30.0,2.0
18.30208158493042,796,1.0,30.0,2.0
18.315897703170776,1371,1.0,30.0,2.0
18.325909852981567,790,1.0,30.0,2.0
18.335933446884155,1264,1.0,30.0,2.0
18.34592032432556,803,1.0,30.0,2.0
18.356213808059692,1296,1.0,30.0,2.0
18.357210874557495,800,1.0,30.0,2.0
18.367223262786865,1230,1.0,30.0,2.0
18.377221822738647,726,1.0,30.0,2.0
18.387221813201904,947,1.0,30.0,2.0
18.405875205993652,720,1.0,30.0,2.0
18.4101300239563,880,1.0,30.0,2.0
18.425872087478638,698,1.0,30.0,2.0
18.42842984199524,993,1.0,30.0,2.0
18.44263195991516,918,1.0,30.0,2.0
18.4535870552063,913,1.0,30.0,2.0
18.463600635528564,942,1.0,30.0,2.0
18.47589898109436,861,1.0,30.0,2.0
18.476897716522217,912,1.0,30.0,2.0
18.486909866333008,848,1.0,30.0,2.0
18.496910095214844,882,1.0,30.0,2.0
18.50690984725952,912,1.0,30.0,2.0
18.518090963363647,913,1.0,30.0,2.0
18.528112649917603,844,1.0,30.0,2.0
18.5403470993042,940,1.0,30.0,2.0
18.550369024276733,896,1.0,30.0,2.0
18.560367584228516,930,1.0,30.0,2.0
18.570367574691772,861,1.0,30.0,2.0
18.58036756515503,862,1.0,30.0,2.0
18.590367794036865,738,1.0,30.0,2.0
18.600369215011597,640,1.0,30.0,2.0
18.613512754440308,807,1.0,30.0,2.0
18.625826597213745,799,1.0,30.0,2.0
18.628911018371582,770,1.0,30.0,2.0
18.643471002578735,718,1.0,30.0,2.0
18.65516495704651,765,1.0,30.0,2.0
18.661009073257446,767,1.0,30.0,2.0
18.675859689712524,698,1.0,30.0,2.0
18.677866458892822,752,1.0,30.0,2.0
18.6878764629364,701,1.0,30.0,2.0
18.69787311553955,526,1.0,30.0,2.0
18.70787286758423,595,1.0,30.0,2.0
18.71901297569275,352,1.0,30.0,2.0
18.7355477809906,571,1.0,30.0,2.0
18.745935916900635,356,1.0,30.0,2.0
18.75594162940979,555,1.0,30.0,2.0
18.765941619873047,341,1.0,30.0,2.0
18.77594256401062,543,1.0,30.0,2.0
18.786216735839844,333,1.0,30.0,2.0
18.78723120689392,567,1.0,30.0,2.0
18.797248363494873,282,1.0,30.0,2.0
18.807249784469604,555,1.0,30.0,2.0
18.82595419883728,290,1.0,30.0,2.0
18.834447860717773,589,1.0,30.0,2.0
18.84404945373535,251,1.0,30.0,2.0
18.85301971435547,527,1.0,30.0,2.0
18.860446453094482,248,1.0,30.0,2.0
18.87581992149353,502,1.0,30.0,2.0
18.87684202194214,265,1.0,30.0,2.0
18.886847496032715,499,1.0,30.0,2.0
18.896843194961548,254,1.0,30.0,2.0
18.906843423843384,458,1.0,30.0,2.0
18.91925811767578,242,1.0,30.0,2.0
18.93175435066223,434,1.0,30.0,2.0
18.945897579193115,230,1.0,30.0,2.0
18.955909729003906,397,1.0,30.0,2.0
18.965916633605957,214,1.0,30.0,2.0
18.975910186767578,405,1.0,30.0,2.0
18.98590636253357,176,1.0,30.0,2.0
18.98721480369568,451,1.0,30.0,2.0
18.997233867645264,174,1.0,30.0,2.0
19.00723385810852,406,1.0,30.0,2.0
19.017261743545532,163,1.0,30.0,2.0
19.030148029327393,371,1.0,30.0,2.0
19.044729709625244,1613,1.0,30.0,2.0
19.05384135246277,379,1.0,30.0,2.0
19.06007671356201,2313,1.0,30.0,2.0
19.075796604156494,395,1.0,30.0,2.0
19.076690435409546,798,1.0,30.0,2.0
19.08756995201111,382,1.0,30.0,2.0
19.09792399406433,101,1.0,30.0,2.0
19.10884428024292,359,1.0,30.0,2.0
19.11884593963623,100,1.0,30.0,2.0
19.128847122192383,374,1.0,30.0,2.0
19.138845682144165,80,1.0,30.0,2.0
19.148847341537476,336,1.0,30.0,2.0
19.158846616744995,66,1.0,30.0,2.0
19.175631523132324,342,1.0,30.0,2.0
19.176530122756958,58,1.0,30.0,2.0
19.187427043914795,307,1.0,30.0,2.0
19.197426795959473,70,1.0,30.0,2.0
19.20742702484131,418,1.0,30.0,2.0
19.22513771057129,2145,1.0,30.0,2.0
19.235841512680054,443,1.0,30.0,2.0
19.24541401863098,1744,1.0,30.0,2.0
19.255727291107178,371,1.0,30.0,2.0
19.26100516319275,317,1.0,30.0,2.0
19.275262594223022,266,1.0,30.0,2.0
19.285267114639282,2137,1.0,30.0,2.0
19.294374704360962,188,1.0,30.0,2.0
19.304384231567383,2351,1.0,30.0,2.0
19.31592297554016,264,1.0,30.0,2.0
19.32593536376953,2432,1.0,30.0,2.0
19.335935354232788,225,1.0,30.0,2.0
19.345935106277466,2352,1.0,30.0,2.0
19.355935096740723,285,1.0,30.0,2.0
19.365936994552612,2306,1.0,30.0,2.0
19.375935554504395,240,1.0,30.0,2.0
19.385935306549072,2283,1.0,30.0,2.0
19.395934104919434,250,1.0,30.0,2.0
19.397590160369873,2342,1.0,30.0,2.0
19.411383867263794,242,1.0,30.0,2.0
19.421394109725952,2277,1.0,30.0,2.0
19.433629274368286,256,1.0,30.0,2.0
19.445817232131958,2210,1.0,30.0,2.0
19.446815729141235,230,1.0,30.0,2.0
19.461504697799683,2131,1.0,30.0,2.0
19.47557806968689,219,1.0,30.0,2.0
19.479458570480347,2153,1.0,30.0,2.0
19.493520736694336,215,1.0,30.0,2.0
19.50152850151062,2146,1.0,30.0,2.0
19.51098918914795,189,1.0,30.0,2.0
19.525606155395508,2123,1.0,30.0,2.0
19.526604413986206,151,1.0,30.0,2.0
19.536617755889893,2079,1.0,30.0,2.0
19.547696828842163,166,1.0,30.0,2.0
19.55983281135559,2096,1.0,30.0,2.0
19.56984281539917,168,1.0,30.0,2.0
19.579841375350952,1951,1.0,30.0,2.0
19.58984136581421,717,1.0,30.0,2.0
19.600194215774536,2000,1.0,30.0,2.0
19.611143589019775,190,1.0,30.0,2.0
19.625924110412598,1894,1.0,30.0,2.0
19.635935068130493,1616,1.0,30.0,2.0
19.645936489105225,1922,1.0,30.0,2.0
19.655935287475586,1449,1.0,30.0,2.0
19.665936708450317,1879,1.0,30.0,2.0
19.67660665512085,1639,1.0,30.0,2.0
19.685577869415283,1821,1.0,30.0,2.0
19.69424605369568,1863,1.0,30.0,2.0
19.70225977897644,1866,1.0,30.0,2.0
19.711655139923096,2123,1.0,30.0,2.0
19.72556233406067,1761,1.0,30.0,2.0
19.727614164352417,2235,1.0,30.0,2.0
19.738741159439087,1733,1.0,30.0,2.0
19.74875569343567,2299,1.0,30.0,2.0
19.759010076522827,1772,1.0,30.0,2.0
19.76996374130249,2350,1.0,30.0,2.0
19.779958963394165,1123,1.0,30.0,2.0
19.789957761764526,48,1.0,30.0,2.0
19.79995894432068,704,1.0,30.0,2.0
19.809993743896484,550,1.0,30.0,2.0
19.81998348236084,2102,1.0,30.0,2.0
19.829957246780396,2373,1.0,30.0,2.0
19.839958906173706,2084,1.0,30.0,2.0
19.84995722770691,2297,1.0,30.0,2.0
19.85998272895813,1955,1.0,30.0,2.0
19.869957208633423,2176,1.0,30.0,2.0
19.88438630104065,1851,1.0,30.0,2.0
19.895968198776245,2288,1.0,30.0,2.0
19.904971837997437,1552,1.0,30.0,2.0
19.911662817001343,2296,1.0,30.0,2.0
19.92550802230835,1317,1.0,30.0,2.0
19.929139614105225,2208,1.0,30.0,2.0
19.94209384918213,1143,1.0,30.0,2.0
19.955923557281494,2159,1.0,30.0,2.0
19.96593475341797,1218,1.0,30.0,2.0
19.975942373275757,2149,1.0,30.0,2.0
19.985936641693115,1386,1.0,30.0,2.0
19.995936393737793,2286,1.0,30.0,2.0
20.005932092666626,1457,1.0,30.0,2.0
20.015932083129883,2153,1.0,30.0,2.0
20.025935649871826,1403,1.0,30.0,2.0
20.035940647125244,2146,1.0,30.0,2.0
20.04593563079834,1391,1.0,30.0,2.0
20.055935859680176,2138,1.0,30.0,2.0
20.06593608856201,1385,1.0,30.0,2.0
20.075923681259155,2058,1.0,30.0,2.0
20.085942029953003,1249,1.0,30.0,2.0
20.096162796020508,1905,1.0,30.0,2.0
20.09972047805786,1242,1.0,30.0,2.0
20.113406658172607,1769,1.0,30.0,2.0
20.125459909439087,1257,1.0,30.0,2.0
20.135879516601562,1874,1.0,30.0,2.0
20.142358541488647,1191,1.0,30.0,2.0
20.151191234588623,1850,1.0,30.0,2.0
20.15919303894043,1110,1.0,30.0,2.0
20.167256116867065,1836,1.0,30.0,2.0
20.17725658416748,1077,1.0,30.0,2.0
20.187255859375,1814,1.0,30.0,2.0
20.204242944717407,1067,1.0,30.0,2.0
20.208895921707153,1819,1.0,30.0,2.0
20.218907833099365,1012,1.0,30.0,2.0
20.230109930038452,1841,1.0,30.0,2.0
20.240126609802246,1040,1.0,30.0,2.0
20.250131607055664,1867,1.0,30.0,2.0
20.260125398635864,915,1.0,30.0,2.0
20.270125150680542,1689,1.0,30.0,2.0
20.28014612197876,911,1.0,30.0,2.0
20.290125370025635,1553,1.0,30.0,2.0
20.30317449569702,894,1.0,30.0,2.0
20.31534719467163,1494,1.0,30.0,2.0
20.325504064559937,879,1.0,30.0,2.0
20.32876181602478,1474,1.0,30.0,2.0
20.345919132232666,865,1.0,30.0,2.0
20.353928327560425,1422,1.0,30.0,2.0
20.366008758544922,845,1.0,30.0,2.0
20.375630855560303,1398,1.0,30.0,2.0
20.37662935256958,910,1.0,30.0,2.0
20.386642932891846,1557,1.0,30.0,2.0
20.396642684936523,898,1.0,30.0,2.0
20.40664315223694,1642,1.0,30.0,2.0
20.416642665863037,880,1.0,30.0,2.0
20.426641702651978,1607,1.0,30.0,2.0
20.436641454696655,896,1.0,30.0,2.0
20.44843339920044,1567,1.0,30.0,2.0
20.458500385284424,847,1.0,30.0,2.0
20.468501806259155,1456,1.0,30.0,2.0
20.485896587371826,834,1.0,30.0,2.0
20.495917558670044,1442,1.0,30.0,2.0
20.505908489227295,810,1.0,30.0,2.0
20.507247924804688,1394,1.0,30.0,2.0
20.525472402572632,755,1.0,30.0,2.0
20.53170418739319,1366,1.0,30.0,2.0
20.54589295387268,727,1.0,30.0,2.0
20.553902864456177,1396,1.0,30.0,2.0
20.559361457824707,742,1.0,30.0,2.0
20.57543444633484,1266,1.0,30.0,2.0
20.585897207260132,720,1.0,30.0,2.0
20.595670700073242,1271,1.0,30.0,2.0
20.605681896209717,661,1.0,30.0,2.0
20.615692853927612,1303,1.0,30.0,2.0
20.617210626602173,1075,1.0,30.0,2.0
20.627246379852295,4095,1.0,30.0,2.0
20.637245893478394,1190,1.0,30.0,2.0
20.647241353988647,4095,1.0,30.0,2.0
20.657241344451904,1499,1.0,30.0,2.0
20.667241096496582,2870,1.0,30.0,2.0
20.677242517471313,1104,1.0,30.0,2.0
20.687241077423096,1904,1.0,30.0,2.0
20.697243452072144,1214,1.0,30.0,2.0
20.70724105834961,2149,1.0,30.0,2.0
20.725280284881592,1009,1.0,30.0,2.0
20.736702919006348,1810,1.0,30.0,2.0
20.74593424797058,848,1.0,30.0,2.0
20.7509503364563,1532,1.0,30.0,2.0
20.761947631835938,708,1.0,30.0,2.0
20.775331497192383,1262,1.0,30.0,2.0
20.785343885421753,4095,1.0,30.0,2.0
20.7945556640625,1222,1.0,30.0,2.0
20.805923223495483,4095,1.0,30.0,2.0
20.815935850143433,1226,1.0,30.0,2.0
20.825934886932373,4095,1.0,30.0,2.0
20.835935831069946,1037,1.0,30.0,2.0
20.84627652168274,4095,1.0,30.0,2.0
20.847278356552124,1141,1.0,30.0,2.0
20.85731077194214,4095,1.0,30.0,2.0
20.867310523986816,1010,1.0,30.0,2.0
20.877310276031494,4095,1.0,30.0,2.0
20.88731026649475,944,1.0,30.0,2.0
20.897310256958008,4095,1.0,30.0,2.0
20.911174297332764,1002,1.0,30.0,2.0
20.921175718307495,4095,1.0,30.0,2.0
20.931174516677856,925,1.0,30.0,2.0
20.944456815719604,4095,1.0,30.0,2.0
20.95549726486206,915,1.0,30.0,2.0
20.960794925689697,4095,1.0,30.0,2.0
20.97529697418213,848,1.0,30.0,2.0
20.978310108184814,2726,1.0,30.0,2.0
20.994039058685303,718,1.0,30.0,2.0
21.004051208496094,1837,1.0,30.0,2.0
21.01405668258667,755,1.0,30.0,2.0
21.024052381515503,1614,1.0,30.0,2.0
21.034051179885864,739,1.0,30.0,2.0
21.04405117034912,949,1.0,30.0,2.0
21.05513596534729,695,1.0,30.0,2.0
21.065362215042114,851,1.0,30.0,2.0
21.06636071205139,713,1.0,30.0,2.0
21.076371431350708,1063,1.0,30.0,2.0
21.09592604637146,624,1.0,30.0,2.0
21.10593819618225,880,1.0,30.0,2.0
21.115938186645508,611,1.0,30.0,2.0
21.117446422576904,739,1.0,30.0,2.0
21.12747025489807,605,1.0,30.0,2.0
21.137468576431274,393,1.0,30.0,2.0
21.15611505508423,531,1.0,30.0,2.0
21.162131309509277,447,1.0,30.0,2.0
21.175281763076782,576,1.0,30.0,2.0
21.185704946517944,395,1.0,30.0,2.0
21.19312286376953,560,1.0,30.0,2.0
21.204280376434326,556,1.0,30.0,2.0
21.214288234710693,592,1.0,30.0,2.0
21.22580337524414,875,1.0,30.0,2.0
21.23495650291443,605,1.0,30.0,2.0
21.244977951049805,947,1.0,30.0,2.0
21.25498056411743,581,1.0,30.0,2.0
21.265922784805298,761,1.0,30.0,2.0
21.275941133499146,597,1.0,30.0,2.0
21.285942554473877,1119,1.0,30.0,2.0
21.287302494049072,678,1.0,30.0,2.0
21.299749612808228,4095,1.0,30.0,2.0
21.309762239456177,683,1.0,30.0,2.0
21.319758892059326,2640,1.0,30.0,2.0
21.329757928848267,645,1.0,30.0,2.0
21.34589719772339,2694,1.0,30.0,2.0
21.356025457382202,898,1.0,30.0,2.0
21.357048273086548,3262,1.0,30.0,2.0
21.375316381454468,719,1.0,30.0,2.0
21.38600254058838,3041,1.0,30.0,2.0
21.39335536956787,530,1.0,30.0,2.0
21.40233039855957,2668,1.0,30.0,2.0
21.40967321395874,652,1.0,30.0,2.0
21.426222562789917,2855,1.0,30.0,2.0
21.42757248878479,705,1.0,30.0,2.0
21.43757939338684,3729,1.0,30.0,2.0
21.447579622268677,661,1.0,30.0,2.0
21.4591383934021,3265,1.0,30.0,2.0
21.469187021255493,576,1.0,30.0,2.0
21.47915744781494,2503,1.0,30.0,2.0
21.4891574382782,448,1.0,30.0,2.0
21.49915909767151,2845,1.0,30.0,2.0
21.509157419204712,342,1.0,30.0,2.0
21.51915740966797,4078,1.0,30.0,2.0
21.535609245300293,319,1.0,30.0,2.0
21.536606311798096,4095,1.0,30.0,2.0
21.54661273956299,416,1.0,30.0,2.0
21.556612968444824,3537,1.0,30.0,2.0
21.566611289978027,367,1.0,30.0,2.0
21.58574080467224,3003,1.0,30.0,2.0
21.59308433532715,347,1.0,30.0,2.0
21.616865158081055,2675,1.0,30.0,2.0
21.616865158081055,325,1.0,30.0,2.0
21.62543773651123,2238,1.0,30.0,2.0
21.62986969947815,302,1.0,30.0,2.0
21.643040895462036,2377,1.0,30.0,2.0
21.65356159210205,468,1.0,30.0,2.0
21.663575410842896,2752,1.0,30.0,2.0
21.673578023910522,418,1.0,30.0,2.0
21.6848783493042,2777,1.0,30.0,2.0
21.694891452789307,400,1.0,30.0,2.0
21.705971479415894,2747,1.0,30.0,2.0
21.715986013412476,357,1.0,30.0,2.0
21.717052936553955,2816,1.0,30.0,2.0
21.727068424224854,272,1.0,30.0,2.0
21.74383568763733,2796,1.0,30.0,2.0
21.748239994049072,258,1.0,30.0,2.0
21.76608920097351,2415,1.0,30.0,2.0
21.7760968208313,214,1.0,30.0,2.0
21.78615641593933,2491,1.0,30.0,2.0
21.796505212783813,176,1.0,30.0,2.0
21.805648803710938,2522,1.0,30.0,2.0
21.813643217086792,139,1.0,30.0,2.0
21.82534098625183,2433,1.0,30.0,2.0
21.834277153015137,149,1.0,30.0,2.0
21.842862367630005,2465,1.0,30.0,2.0
21.852901935577393,145,1.0,30.0,2.0
21.866333723068237,2566,1.0,30.0,2.0
21.87634539604187,1937,1.0,30.0,2.0
21.88634204864502,2419,1.0,30.0,2.0
21.896339654922485,2010,1.0,30.0,2.0
21.906339645385742,2378,1.0,30.0,2.0
21.91633939743042,1975,1.0,30.0,2.0
21.926339387893677,2345,1.0,30.0,2.0
21.93634009361267,2231,1.0,30.0,2.0
21.93634009361267,2185,1.0,30.0,2.0
21.94759774208069,2282,1.0,30.0,2.0
21.957646131515503,2070,1.0,30.0,2.0
21.974891185760498,2306,1.0,30.0,2.0
21.98490047454834,2123,1.0,30.0,2.0
21.994899034500122,559,1.0,30.0,2.0
22.005338668823242,2143,1.0,30.0,2.0
22.015284776687622,122,1.0,30.0,2.0
22.02432370185852,2081,1.0,30.0,2.0
22.035593509674072,2365,1.0,30.0,2.0
22.045907497406006,1918,1.0,30.0,2.0
22.053934335708618,2249,1.0,30.0,2.0
22.05979585647583,2167,1.0,30.0,2.0
22.075944423675537,1956,1.0,30.0,2.0
22.076942205429077,3045,1.0,30.0,2.0
22.086958169937134,1692,1.0,30.0,2.0
22.09695816040039,3125,1.0,30.0,2.0
22.106976985931396,2006,1.0,30.0,2.0
22.1169593334198,2621,1.0,30.0,2.0
22.128231287002563,2085,1.0,30.0,2.0
22.139527797698975,2024,1.0,30.0,2.0
22.149534702301025,2094,1.0,30.0,2.0
22.16592288017273,1611,1.0,30.0,2.0
22.17593502998352,1770,1.0,30.0,2.0
22.1859347820282,1231,1.0,30.0,2.0
22.195931434631348,2097,1.0,30.0,2.0
22.205934762954712,1234,1.0,30.0,2.0
22.217082500457764,2117,1.0,30.0,2.0
22.22609043121338,1302,1.0,30.0,2.0
22.232157945632935,1883,1.0,30.0,2.0
22.245931386947632,1390,1.0,30.0,2.0
22.256041049957275,1898,1.0,30.0,2.0
22.263598203659058,1486,1.0,30.0,2.0
22.27160882949829,1938,1.0,30.0,2.0
22.27964425086975,2169,1.0,30.0,2.0
22.29262924194336,1804,1.0,30.0,2.0
22.30263590812683,1966,1.0,30.0,2.0
22.31263542175293,1719,1.0,30.0,2.0
22.32263708114624,1685,1.0,30.0,2.0
22.335934162139893,1711,1.0,30.0,2.0
22.345946788787842,1108,1.0,30.0,2.0
22.355945348739624,1689,1.0,30.0,2.0
22.365946531295776,1220,1.0,30.0,2.0
22.375964403152466,1718,1.0,30.0,2.0
22.385946035385132,1409,1.0,30.0,2.0
22.395946264266968,1637,1.0,30.0,2.0
22.405946254730225,1408,1.0,30.0,2.0
22.41594672203064,1639,1.0,30.0,2.0
22.42621374130249,1286,1.0,30.0,2.0
22.42922616004944,1488,1.0,30.0,2.0
22.444024801254272,1325,1.0,30.0,2.0
22.452039003372192,1458,1.0,30.0,2.0
22.460580825805664,1446,1.0,30.0,2.0
22.475165605545044,1462,1.0,30.0,2.0
22.47715973854065,1426,1.0,30.0,2.0
22.496132850646973,1466,1.0,30.0,2.0
22.506138801574707,1384,1.0,30.0,2.0
22.516140460968018,1478,1.0,30.0,2.0
22.52613878250122,1311,1.0,30.0,2.0
22.53614068031311,1472,1.0,30.0,2.0
22.54613947868347,1242,1.0,30.0,2.0
22.55614733695984,1366,1.0,30.0,2.0
22.5661404132843,1157,1.0,30.0,2.0
22.576380729675293,1250,1.0,30.0,2.0
22.58590841293335,1122,1.0,30.0,2.0
22.595943212509155,1241,1.0,30.0,2.0
22.605923891067505,830,1.0,30.0,2.0
22.615919828414917,1249,1.0,30.0,2.0
22.625922441482544,899,1.0,30.0,2.0
22.636070013046265,1217,1.0,30.0,2.0
22.641719102859497,841,1.0,30.0,2.0
22.65411615371704,1200,1.0,30.0,2.0
22.66590452194214,845,1.0,30.0,2.0
22.676038026809692,1165,1.0,30.0,2.0
22.68404793739319,734,1.0,30.0,2.0
22.692047834396362,1146,1.0,30.0,2.0
22.70006823539734,659,1.0,30.0,2.0
22.71216654777527,1105,1.0,30.0,2.0
22.72592306137085,2471,1.0,30.0,2.0
22.73550271987915,1100,1.0,30.0,2.0
22.736501216888428,4095,1.0,30.0,2.0
22.747636795043945,1053,1.0,30.0,2.0
22.76022958755493,1793,1.0,30.0,2.0
22.775293111801147,1471,1.0,30.0,2.0
22.780239582061768,594,1.0,30.0,2.0
22.790247440338135,1374,1.0,30.0,2.0
22.800247192382812,557,1.0,30.0,2.0
22.810247659683228,1066,1.0,30.0,2.0
22.8202486038208,443,1.0,30.0,2.0
22.83024835586548,993,1.0,30.0,2.0
22.84024739265442,435,1.0,30.0,2.0
22.85593819618225,971,1.0,30.0,2.0
22.861462593078613,451,1.0,30.0,2.0
22.876128673553467,1130,1.0,30.0,2.0
22.878233909606934,2198,1.0,30.0,2.0
22.89267086982727,1063,1.0,30.0,2.0
22.902719736099243,3520,1.0,30.0,2.0
22.912715911865234,1072,1.0,30.0,2.0
22.92600107192993,4026,1.0,30.0,2.0
22.936007976531982,978,1.0,30.0,2.0
22.94601559638977,2450,1.0,30.0,2.0
22.95602250099182,895,1.0,30.0,2.0
22.966007232666016,3841,1.0,30.0,2.0
22.976009607315063,817,1.0,30.0,2.0
22.97835350036621,3923,1.0,30.0,2.0
22.988495111465454,770,1.0,30.0,2.0
22.99849510192871,4095,1.0,30.0,2.0
23.008496046066284,755,1.0,30.0,2.0
23.018494844436646,4095,1.0,30.0,2.0
23.028522968292236,747,1.0,30.0,2.0
23.03849482536316,3827,1.0,30.0,2.0
23.04849600791931,661,1.0,30.0,2.0
23.066009998321533,3987,1.0,30.0,2.0
23.07597851753235,789,1.0,30.0,2.0
23.083991289138794,3775,1.0,30.0,2.0
23.095932483673096,1447,1.0,30.0,2.0
23.103942155838013,3643,1.0,30.0,2.0
23.11034607887268,1376,1.0,30.0,2.0
23.12036395072937,3641,1.0,30.0,2.0
23.135923147201538,1502,1.0,30.0,2.0
23.14594078063965,3650,1.0,30.0,2.0
23.156275987625122,1648,1.0,30.0,2.0
23.15727186203003,3794,1.0,30.0,2.0
23.167280673980713,540,1.0,30.0,2.0
23.185933828353882,3901,1.0,30.0,2.0
23.195945978164673,626,1.0,30.0,2.0
23.20594835281372,3671,1.0,30.0,2.0
23.215943813323975,1912,1.0,30.0,2.0
23.2259464263916,3813,1.0,30.0,2.0
23.235953330993652,541,1.0,30.0,2.0
23.24594807624817,3753,1.0,30.0,2.0
23.255964040756226,481,1.0,30.0,2.0
23.257415771484375,3339,1.0,30.0,2.0
23.275423526763916,585,1.0,30.0,2.0
23.28563904762268,3056,1.0,30.0,2.0
23.294512510299683,1063,1.0,30.0,2.0
23.303742170333862,2768,1.0,30.0,2.0
23.30944800376892,1334,1.0,30.0,2.0
23.319300889968872,2512,1.0,30.0,2.0
23.32733726501465,1811,1.0,30.0,2.0
23.337337970733643,2569,1.0,30.0,2.0
23.34733819961548,1747,1.0,30.0,2.0
23.35733962059021,2603,1.0,30.0,2.0
23.36733913421631,1909,1.0,30.0,2.0
23.37733817100525,2640,1.0,30.0,2.0
23.387338399887085,2057,1.0,30.0,2.0
23.397338151931763,2551,1.0,30.0,2.0
23.40734052658081,2064,1.0,30.0,2.0
23.417349338531494,1300,1.0,30.0,2.0
23.427338123321533,2037,1.0,30.0,2.0
23.43733811378479,749,1.0,30.0,2.0
23.447339296340942,2039,1.0,30.0,2.0
23.45733904838562,688,1.0,30.0,2.0
23.46733808517456,2039,1.0,30.0,2.0
23.485706090927124,146,1.0,30.0,2.0
23.4940083026886,1814,1.0,30.0,2.0
23.502020120620728,0,1.0,30.0,2.0
23.50820279121399,1438,1.0,30.0,2.0
23.526155471801758,713,1.0,30.0,2.0
23.5361647605896,1613,1.0,30.0,2.0
23.54548215866089,160,1.0,30.0,2.0
23.546480417251587,1547,1.0,30.0,2.0
23.55648970603943,58,1.0,30.0,2.0
23.566489458084106,1692,1.0,30.0,2.0
23.57700514793396,112,1.0,30.0,2.0
23.587019443511963,1728,1.0,30.0,2.0
23.597007036209106,221,1.0,30.0,2.0
23.60700798034668,1717,1.0,30.0,2.0
23.61700701713562,321,1.0,30.0,2.0
23.627010345458984,1726,1.0,30.0,2.0
23.637006998062134,343,1.0,30.0,2.0
23.64868402481079,1725,1.0,30.0,2.0
23.659943342208862,159,1.0,30.0,2.0
23.669960260391235,1642,1.0,30.0,2.0
23.679993391036987,16,1.0,30.0,2.0
23.689960718154907,1389,1.0,30.0,2.0
23.70554804801941,99,1.0,30.0,2.0
23.71260952949524,1501,1.0,30.0,2.0
23.725892543792725,0,1.0,30.0,2.0
23.73490023612976,1479,1.0,30.0,2.0
23.743952751159668,0,1.0,30.0,2.0
23.75607466697693,1474,1.0,30.0,2.0
23.75707173347473,0,1.0,30.0,2.0
23.767086505889893,1450,1.0,30.0,2.0
23.77708673477173,0,1.0,30.0,2.0
23.795608282089233,975,1.0,30.0,2.0
23.797626733779907,0,1.0,30.0,2.0
23.807644367218018,959,1.0,30.0,2.0
23.825934171676636,0,1.0,30.0,2.0
23.835962772369385,944,1.0,30.0,2.0
23.845942974090576,0,1.0,30.0,2.0
23.85351300239563,903,1.0,30.0,2.0
23.863528966903687,0,1.0,30.0,2.0
23.87352681159973,850,1.0,30.0,2.0
23.88457989692688,0,1.0,30.0,2.0
23.894593238830566,796,1.0,30.0,2.0
23.904593467712402,0,1.0,30.0,2.0
23.907382249832153,1185,1.0,30.0,2.0
23.925071001052856,0,1.0,30.0,2.0
23.936132669448853,752,1.0,30.0,2.0
23.942959308624268,0,1.0,30.0,2.0
23.95339345932007,731,1.0,30.0,2.0
23.960110425949097,0,1.0,30.0,2.0
23.970420360565186,746,1.0,30.0,2.0
23.985928535461426,66,1.0,30.0,2.0
23.995941400527954,676,1.0,30.0,2.0
24.005939960479736,2155,1.0,30.0,2.0
24.01594114303589,1066,1.0,30.0,2.0
24.025941133499146,1935,1.0,30.0,2.0
24.035937547683716,1005,1.0,30.0,2.0
24.045940160751343,547,1.0,30.0,2.0
24.055941104888916,848,1.0,30.0,2.0
24.065941095352173,250,1.0,30.0,2.0
24.07594060897827,939,1.0,30.0,2.0
24.08630084991455,1341,1.0,30.0,2.0
24.091615438461304,914,1.0,30.0,2.0
24.099981546401978,466,1.0,30.0,2.0
24.110007524490356,896,1.0,30.0,2.0
24.12000823020935,406,1.0,30.0,2.0
24.132479190826416,919,1.0,30.0,2.0
24.14342999458313,0,1.0,30.0,2.0
24.15144181251526,838,1.0,30.0,2.0
24.160234212875366,0,1.0,30.0,2.0
24.17576837539673,683,1.0,30.0,2.0
24.1858651638031,0,1.0,30.0,2.0
24.196226835250854,813,1.0,30.0,2.0
24.197222232818604,0,1.0,30.0,2.0
24.207235097885132,771,1.0,30.0,2.0
24.21723484992981,0,1.0,30.0,2.0
24.227234840393066,624,1.0,30.0,2.0
24.23723602294922,0,1.0,30.0,2.0
24.255932569503784,755,1.0,30.0,2.0
24.265944242477417,403,1.0,30.0,2.0
24.27594542503357,560,1.0,30.0,2.0
24.28594136238098,69,1.0,30.0,2.0
24.296175003051758,558,1.0,30.0,2.0
24.30311942100525,0,1.0,30.0,2.0
24.313997745513916,564,1.0,30.0,2.0
24.32592535018921,0,1.0,30.0,2.0
24.335937976837158,848,1.0,30.0,2.0
24.34606909751892,0,1.0,30.0,2.0
24.355287313461304,752,1.0,30.0,2.0
24.36151361465454,0,1.0,30.0,2.0
24.376020908355713,656,1.0,30.0,2.0
24.385018587112427,0,1.0,30.0,2.0
24.39337158203125,476,1.0,30.0,2.0
24.405803203582764,0,1.0,30.0,2.0
24.41586136817932,304,1.0,30.0,2.0
24.425902843475342,0,1.0,30.0,2.0
24.42730975151062,339,1.0,30.0,2.0
24.437352418899536,624,1.0,30.0,2.0
24.447372436523438,336,1.0,30.0,2.0
24.466487169265747,871,1.0,30.0,2.0
24.469056129455566,322,1.0,30.0,2.0
24.4790678024292,1243,1.0,30.0,2.0
24.490484952926636,423,1.0,30.0,2.0
24.50058937072754,826,1.0,30.0,2.0
24.51107954978943,164,1.0,30.0,2.0
24.52207088470459,982,1.0,30.0,2.0
24.536133766174316,422,1.0,30.0,2.0
24.54614496231079,1387,1.0,30.0,2.0
24.55633544921875,288,1.0,30.0,2.0
24.56554102897644,1439,1.0,30.0,2.0
24.575718879699707,375,1.0,30.0,2.0
24.585978746414185,683,1.0,30.0,2.0
24.592597484588623,368,1.0,30.0,2.0
24.600613594055176,457,1.0,30.0,2.0
24.609060764312744,356,1.0,30.0,2.0
24.62598991394043,346,1.0,30.0,2.0
24.63602328300476,355,1.0,30.0,2.0
24.646012783050537,221,1.0,30.0,2.0
24.65605092048645,318,1.0,30.0,2.0
24.66601276397705,5,1.0,30.0,2.0
24.666545391082764,297,1.0,30.0,2.0
24.677525997161865,0,1.0,30.0,2.0
24.687525510787964,208,1.0,30.0,2.0
24.69752550125122,0,1.0,30.0,2.0
24.707524299621582,266,1.0,30.0,2.0
24.717524528503418,0,1.0,30.0,2.0
24.727524518966675,268,1.0,30.0,2.0
24.73754596710205,4,1.0,30.0,2.0
24.747525691986084,280,1.0,30.0,2.0
24.765794038772583,162,1.0,30.0,2.0
24.776014804840088,193,1.0,30.0,2.0
24.785029649734497,192,1.0,30.0,2.0
24.79128909111023,230,1.0,30.0,2.0
24.800247192382812,134,1.0,30.0,2.0
24.81526780128479,10,1.0,30.0,2.0
24.82543921470642,145,1.0,30.0,2.0
24.835906505584717,138,1.0,30.0,2.0
24.845842361450195,208,1.0,30.0,2.0
24.855852842330933,207,1.0,30.0,2.0
24.866172552108765,182,1.0,30.0,2.0
24.867170333862305,186,1.0,30.0,2.0
24.87718105316162,273,1.0,30.0,2.0
24.887198209762573,161,1.0,30.0,2.0
24.897213459014893,307,1.0,30.0,2.0
24.907180547714233,148,1.0,30.0,2.0
24.917180061340332,279,1.0,30.0,2.0
24.927181243896484,78,1.0,30.0,2.0
24.937180042266846,318,1.0,30.0,2.0
24.947190523147583,131,1.0,30.0,2.0
24.957209587097168,198,1.0,30.0,2.0
24.976122617721558,1356,1.0,30.0,2.0
24.981460332870483,93,1.0,30.0,2.0
24.99360728263855,2348,1.0,30.0,2.0
25.002183198928833,0,1.0,30.0,2.0
25.010093212127686,2180,1.0,30.0,2.0
25.0180983543396,0,1.0,30.0,2.0
25.027138233184814,2469,1.0,30.0,2.0
25.03715229034424,790,1.0,30.0,2.0
25.047151803970337,2438,1.0,30.0,2.0
25.057152271270752,1055,1.0,30.0,2.0
25.067152738571167,2419,1.0,30.0,2.0
25.077151775360107,956,1.0,30.0,2.0
25.087151527404785,2432,1.0,30.0,2.0
25.097151517868042,441,1.0,30.0,2.0
25.115909576416016,1232,1.0,30.0,2.0
25.125935792922974,0,1.0,30.0,2.0
25.13591766357422,2045,1.0,30.0,2.0
25.14592146873474,829,1.0,30.0,2.0
25.155921936035156,1808,1.0,30.0,2.0
25.16024613380432,1367,1.0,30.0,2.0
25.175930976867676,1883,1.0,30.0,2.0
25.185778617858887,2234,1.0,30.0,2.0
25.194596767425537,1803,1.0,30.0,2.0
25.20605993270874,1554,1.0,30.0,2.0
25.21450448036194,1605,1.0,30.0,2.0
25.225459337234497,1885,1.0,30.0,2.0
25.235996961593628,1766,1.0,30.0,2.0
25.245480060577393,1869,1.0,30.0,2.0
25.255605936050415,1753,1.0,30.0,2.0
25.26530885696411,2576,1.0,30.0,2.0
25.275734663009644,1786,1.0,30.0,2.0
25.285645246505737,1535,1.0,30.0,2.0
25.295575618743896,2067,1.0,30.0,2.0
25.30516529083252,0,1.0,30.0,2.0
25.316091299057007,2096,1.0,30.0,2.0
25.325156927108765,0,1.0,30.0,2.0
25.335641145706177,2137,1.0,30.0,2.0
25.346073389053345,0,1.0,30.0,2.0
25.355205535888672,2194,1.0,30.0,2.0
25.365867376327515,0,1.0,30.0,2.0
25.375505447387695,1995,1.0,30.0,2.0
25.385499954223633,0,1.0,30.0,2.0
25.395745515823364,1975,1.0,30.0,2.0
25.404664754867554,0,1.0,30.0,2.0
25.415350914001465,1573,1.0,30.0,2.0
25.42565679550171,2223,1.0,30.0,2.0
25.435975074768066,1222,1.0,30.0,2.0
25.445764780044556,2252,1.0,30.0,2.0
25.455814361572266,1057,1.0,30.0,2.0
25.465569257736206,1894,1.0,30.0,2.0
25.476144313812256,1363,1.0,30.0,2.0
25.485233783721924,1705,1.0,30.0,2.0
25.496007442474365,2331,1.0,30.0,2.0
25.50433588027954,625,1.0,30.0,2.0
25.515278816223145,2270,1.0,30.0,2.0
25.524471521377563,624,1.0,30.0,2.0
25.536064863204956,2252,1.0,30.0,2.0
25.542267084121704,311,1.0,30.0,2.0
25.556029319763184,259,1.0,30.0,2.0
25.565297603607178,313,1.0,30.0,2.0
25.57530117034912,1923,1.0,30.0,2.0
25.585304260253906,1239,1.0,30.0,2.0
25.59516453742981,1920,1.0,30.0,2.0
25.605581045150757,506,1.0,30.0,2.0
25.6159725189209,164,1.0,30.0,2.0
25.625482082366943,304,1.0,30.0,2.0
25.636048793792725,128,1.0,30.0,2.0
25.64519166946411,333,1.0,30.0,2.0
25.65329885482788,210,1.0,30.0,2.0
25.66531777381897,2129,1.0,30.0,2.0
25.67585062980652,1954,1.0,30.0,2.0
25.685726404190063,2206,1.0,30.0,2.0
25.696047067642212,2039,1.0,30.0,2.0
25.70561146736145,1646,1.0,30.0,2.0
25.713265895843506,1247,1.0,30.0,2.0
25.725374698638916,1007,1.0,30.0,2.0
25.73520278930664,768,1.0,30.0,2.0
25.743547439575195,867,1.0,30.0,2.0
25.751685619354248,937,1.0,30.0,2.0
25.76617407798767,894,1.0,30.0,2.0
25.775776386260986,949,1.0,30.0,2.0
25.782355070114136,192,1.0,30.0,2.0
25.795994520187378,479,1.0,30.0,2.0
25.805500984191895,298,1.0,30.0,2.0
25.815817832946777,550,1.0,30.0,2.0
25.819828510284424,179,1.0,30.0,2.0
25.835392951965332,352,1.0,30.0,2.0
25.84563708305359,39,1.0,30.0,2.0
25.855533361434937,561,1.0,30.0,2.0
25.865962266921997,29,1.0,30.0,2.0
25.875938653945923,299,1.0,30.0,2.0
25.881099939346313,18,1.0,30.0,2.0
25.89611268043518,240,1.0,30.0,2.0
25.905260801315308,0,1.0,30.0,2.0
25.912120580673218,298,1.0,30.0,2.0
25.92665958404541,0,1.0,30.0,2.0
25.935986280441284,178,1.0,30.0,2.0
25.946122884750366,112,1.0,30.0,2.0
25.95136332511902,150,1.0,30.0,2.0
25.965668201446533,61,1.0,30.0,2.0
25.975991249084473,176,1.0,30.0,2.0
25.984549522399902,27,1.0,30.0,2.0
25.995319843292236,368,1.0,30.0,2.0
26.005621433258057,0,1.0,30.0,2.0
26.011854887008667,212,1.0,30.0,2.0
26.026386976242065,0,1.0,30.0,2.0
26.035495281219482,198,1.0,30.0,2.0
26.04625701904297,0,1.0,30.0,2.0
26.051159620285034,180,1.0,30.0,2.0
26.065581798553467,0,1.0,30.0,2.0
26.075467109680176,20,1.0,30.0,2.0
26.081700325012207,4095,1.0,30.0,2.0
26.09595251083374,83,1.0,30.0,2.0
26.104732275009155,4095,1.0,30.0,2.0
26.114763259887695,4,1.0,30.0,2.0
26.126327753067017,4095,1.0,30.0,2.0
26.13562560081482,0,1.0,30.0,2.0
26.144702196121216,4095,1.0,30.0,2.0
26.15085768699646,0,1.0,30.0,2.0
26.165987730026245,4095,1.0,30.0,2.0
26.17569923400879,0,1.0,30.0,2.0
26.182624101638794,4095,1.0,30.0,2.0
26.195969343185425,0,1.0,30.0,2.0
26.205616235733032,4095,1.0,30.0,2.0
26.213378429412842,0,1.0,30.0,2.0
26.225843906402588,4095,1.0,30.0,2.0
26.23604702949524,0,1.0,30.0,2.0
26.244325637817383,4095,1.0,30.0,2.0
26.254903316497803,0,1.0,30.0,2.0
26.26613187789917,4095,1.0,30.0,2.0
26.27599310874939,0,1.0,30.0,2.0
26.28148102760315,4095,1.0,30.0,2.0
26.296042919158936,0,1.0,30.0,2.0
26.304662466049194,4095,1.0,30.0,2.0
26.312955617904663,0,1.0,30.0,2.0
26.325555562973022,4095,1.0,30.0,2.0
26.335049629211426,0,1.0,30.0,2.0
26.34508180618286,4095,1.0,30.0,2.0
26.35652732849121,134,1.0,30.0,2.0
26.36551547050476,4095,1.0,30.0,2.0
26.37617588043213,837,1.0,30.0,2.0
26.381150007247925,4095,1.0,30.0,2.0
26.395679712295532,1206,1.0,30.0,2.0
26.40410089492798,4095,1.0,30.0,2.0
26.4108784198761,0,1.0,30.0,2.0
26.425352573394775,4095,1.0,30.0,2.0
26.434834718704224,0,1.0,30.0,2.0
26.445460081100464,4095,1.0,30.0,2.0
26.456259965896606,2415,1.0,30.0,2.0
26.465975284576416,4095,1.0,30.0,2.0
26.475378036499023,2546,1.0,30.0,2.0
26.488487482070923,4095,1.0,30.0,2.0
26.4955096244812,2569,1.0,30.0,2.0
26.506128549575806,4095,1.0,30.0,2.0
26.512813568115234,2552,1.0,30.0,2.0
26.525352716445923,4095,1.0,30.0,2.0
26.53265690803528,2313,1.0,30.0,2.0
26.542128801345825,4095,1.0,30.0,2.0
26.555960178375244,2042,1.0,30.0,2.0
26.565393686294556,4095,1.0,30.0,2.0
26.575140237808228,2109,1.0,30.0,2.0
26.580797910690308,4095,1.0,30.0,2.0
26.595804452896118,2155,1.0,30.0,2.0
26.60372757911682,4095,1.0,30.0,2.0
26.611674547195435,2214,1.0,30.0,2.0
26.625837326049805,4095,1.0,30.0,2.0
26.634668588638306,2086,1.0,30.0,2.0
26.64439082145691,4095,1.0,30.0,2.0
26.655483961105347,2227,1.0,30.0,2.0
26.666079998016357,4095,1.0,30.0,2.0
26.676095962524414,2181,1.0,30.0,2.0
26.6863956451416,4095,1.0,30.0,2.0
26.695842027664185,2224,1.0,30.0,2.0
26.70432710647583,4095,1.0,30.0,2.0
26.711222887039185,2255,1.0,30.0,2.0
26.725231647491455,4095,1.0,30.0,2.0
26.7359299659729,2168,1.0,30.0,2.0
26.742741346359253,4095,1.0,30.0,2.0
26.75536322593689,2144,1.0,30.0,2.0
26.75990581512451,4095,1.0,30.0,2.0
26.776100873947144,2099,1.0,30.0,2.0
26.786187410354614,4095,1.0,30.0,2.0
26.79491424560547,1999,1.0,30.0,2.0
26.802436351776123,4095,1.0,30.0,2.0
26.81028175354004,2058,1.0,30.0,2.0
26.8250834941864,4095,1.0,30.0,2.0
26.835227012634277,2027,1.0,30.0,2.0
26.84178352355957,4095,1.0,30.0,2.0
26.85180163383484,1956,1.0,30.0,2.0
26.86615538597107,4095,1.0,30.0,2.0
26.875986576080322,1934,1.0,30.0,2.0
26.886229276657104,4095,1.0,30.0,2.0
26.89388656616211,1890,1.0,30.0,2.0
26.9019296169281,4095,1.0,30.0,2.0
26.916064977645874,1822,1.0,30.0,2.0
26.925146102905273,4095,1.0,30.0,2.0
26.933329343795776,1747,1.0,30.0,2.0
26.946173906326294,4095,1.0,30.0,2.0
26.947162866592407,1715,1.0,30.0,2.0
26.957181215286255,4095,1.0,30.0,2.0
26.96721601486206,1687,1.0,30.0,2.0
26.98577046394348,3436,1.0,30.0,2.0
26.99466061592102,1620,1.0,30.0,2.0
27.003188848495483,2971,1.0,30.0,2.0
27.009913444519043,1644,1.0,30.0,2.0
27.02517342567444,2096,1.0,30.0,2.0
27.033686637878418,1321,1.0,30.0,2.0
27.045159816741943,3367,1.0,30.0,2.0
27.055696964263916,1501,1.0,30.0,2.0
27.06646490097046,4095,1.0,30.0,2.0
27.075716972351074,1472,1.0,30.0,2.0
27.085695505142212,3792,1.0,30.0,2.0
27.09359097480774,1424,1.0,30.0,2.0
27.102630376815796,3280,1.0,30.0,2.0
27.11515712738037,1403,1.0,30.0,2.0
27.12613797187805,2809,1.0,30.0,2.0
27.13614821434021,1353,1.0,30.0,2.0
27.145167112350464,1535,1.0,30.0,2.0
27.15611457824707,1038,1.0,30.0,2.0
27.164021492004395,1179,1.0,30.0,2.0
27.171302556991577,1045,1.0,30.0,2.0
27.185059309005737,1165,1.0,30.0,2.0
27.195096731185913,1152,1.0,30.0,2.0
27.201601028442383,1102,1.0,30.0,2.0
27.215169191360474,879,1.0,30.0,2.0
27.22610330581665,503,1.0,30.0,2.0
27.236129760742188,491,1.0,30.0,2.0
27.240177392959595,621,1.0,30.0,2.0
27.255500078201294,511,1.0,30.0,2.0
27.25649642944336,1948,1.0,30.0,2.0
27.275155305862427,304,1.0,30.0,2.0
27.285013914108276,147,1.0,30.0,2.0
27.29568910598755,444,1.0,30.0,2.0
27.306045293807983,2388,1.0,30.0,2.0
27.315600872039795,186,1.0,30.0,2.0
27.32591676712036,439,1.0,30.0,2.0
27.336060762405396,295,1.0,30.0,2.0
27.345247268676758,329,1.0,30.0,2.0
27.35603094100952,288,1.0,30.0,2.0
27.365988731384277,353,1.0,30.0,2.0
27.375450611114502,158,1.0,30.0,2.0
27.385276079177856,320,1.0,30.0,2.0
27.39572525024414,389,1.0,30.0,2.0
27.405277490615845,365,1.0,30.0,2.0
27.41546320915222,189,1.0,30.0,2.0
27.425580263137817,306,1.0,30.0,2.0
27.433309316635132,0,1.0,30.0,2.0
27.44589614868164,399,1.0,30.0,2.0
27.455779790878296,28,1.0,30.0,2.0
27.465516805648804,298,1.0,30.0,2.0
27.47552728652954,186,1.0,30.0,2.0
27.485583066940308,400,1.0,30.0,2.0
27.495762586593628,381,1.0,30.0,2.0
27.50586771965027,404,1.0,30.0,2.0
27.5151526927948,278,1.0,30.0,2.0
27.525699138641357,443,1.0,30.0,2.0
27.536171436309814,289,1.0,30.0,2.0
27.546234607696533,528,1.0,30.0,2.0
27.55632257461548,352,1.0,30.0,2.0
27.56586217880249,647,1.0,30.0,2.0
27.576173305511475,353,1.0,30.0,2.0
27.58624815940857,659,1.0,30.0,2.0
27.596129417419434,439,1.0,30.0,2.0
27.605167865753174,646,1.0,30.0,2.0
27.615434646606445,357,1.0,30.0,2.0
27.625579833984375,618,1.0,30.0,2.0
27.6360502243042,288,1.0,30.0,2.0
27.645747900009155,590,1.0,30.0,2.0
27.655318021774292,294,1.0,30.0,2.0
27.665343761444092,586,1.0,30.0,2.0
27.675440788269043,273,1.0,30.0,2.0
27.685495138168335,560,1.0,30.0,2.0
27.6954562664032,275,1.0,30.0,2.0
27.70181918144226,525,1.0,30.0,2.0
27.715508460998535,235,1.0,30.0,2.0
27.72526240348816,482,1.0,30.0,2.0
27.735195875167847,214,1.0,30.0,2.0
27.745693683624268,471,1.0,30.0,2.0
27.755098581314087,181,1.0,30.0,2.0
27.765905141830444,959,1.0,30.0,2.0
27.775338411331177,187,1.0,30.0,2.0
27.784764289855957,1975,1.0,30.0,2.0
27.795637607574463,194,1.0,30.0,2.0
27.80373501777649,1876,1.0,30.0,2.0
27.81583857536316,190,1.0,30.0,2.0
27.825834274291992,1787,1.0,30.0,2.0
27.835620880126953,159,1.0,30.0,2.0
27.845983743667603,355,1.0,30.0,2.0
27.855034589767456,176,1.0,30.0,2.0
27.865419149398804,2162,1.0,30.0,2.0
27.876277685165405,197,1.0,30.0,2.0
27.885908126831055,2157,1.0,30.0,2.0
27.895995140075684,212,1.0,30.0,2.0
27.904969692230225,2012,1.0,30.0,2.0
27.915116548538208,191,1.0,30.0,2.0
27.92580270767212,1161,1.0,30.0,2.0
27.935741901397705,144,1.0,30.0,2.0
27.945494413375854,975,1.0,30.0,2.0
27.956170082092285,140,1.0,30.0,2.0
27.96503520011902,880,1.0,30.0,2.0
27.975326776504517,180,1.0,30.0,2.0
27.98513102531433,693,1.0,30.0,2.0
27.995704412460327,132,1.0,30.0,2.0
28.000051975250244,201,1.0,30.0,2.0
28.015831470489502,106,1.0,30.0,2.0
28.025298595428467,171,1.0,30.0,2.0
28.03517770767212,85,1.0,30.0,2.0
28.04516315460205,153,1.0,30.0,2.0
28.056251049041748,105,1.0,30.0,2.0
28.065205335617065,2298,1.0,30.0,2.0
28.075554370880127,112,1.0,30.0,2.0
28.084144830703735,1133,1.0,30.0,2.0
28.095539331436157,110,1.0,30.0,2.0
28.099475860595703,659,1.0,30.0,2.0
28.11547327041626,91,1.0,30.0,2.0
28.125145435333252,176,1.0,30.0,2.0
28.135781288146973,68,1.0,30.0,2.0
28.145526885986328,2338,1.0,30.0,2.0
28.155985593795776,94,1.0,30.0,2.0
28.166086196899414,1801,1.0,30.0,2.0
28.176002502441406,166,1.0,30.0,2.0
28.18558645248413,1258,1.0,30.0,2.0
28.19540572166443,142,1.0,30.0,2.0
28.20526385307312,1294,1.0,30.0,2.0
28.215197563171387,149,1.0,30.0,2.0
28.22519040107727,1078,1.0,30.0,2.0
28.233139038085938,174,1.0,30.0,2.0
28.246004581451416,926,1.0,30.0,2.0
28.255229473114014,155,1.0,30.0,2.0
28.26546859741211,1029,1.0,30.0,2.0
28.2759428024292,87,1.0,30.0,2.0
28.286139011383057,1005,1.0,30.0,2.0
28.29594850540161,54,1.0,30.0,2.0
28.305674076080322,912,1.0,30.0,2.0
28.31528377532959,45,1.0,30.0,2.0
28.32565426826477,637,1.0,30.0,2.0
28.33492684364319,0,1.0,30.0,2.0
28.34574007987976,624,1.0,30.0,2.0
28.35388970375061,3,1.0,30.0,2.0
28.36506462097168,896,1.0,30.0,2.0
28.375434398651123,71,1.0,30.0,2.0
28.38601851463318,706,1.0,30.0,2.0
28.396222352981567,65,1.0,30.0,2.0
28.405218601226807,736,1.0,30.0,2.0
28.415246725082397,35,1.0,30.0,2.0
28.425687789916992,1103,1.0,30.0,2.0
28.431683778762817,19,1.0,30.0,2.0
28.446216344833374,1898,1.0,30.0,2.0
28.453673362731934,22,1.0,30.0,2.0
28.46125602722168,768,1.0,30.0,2.0
28.47533130645752,0,1.0,30.0,2.0
28.48621392250061,656,1.0,30.0,2.0
28.49237561225891,31,1.0,30.0,2.0
28.50551414489746,674,1.0,30.0,2.0
28.515011072158813,16,1.0,30.0,2.0
28.52447819709778,2101,1.0,30.0,2.0
28.53588557243347,14,1.0,30.0,2.0
28.54544711112976,464,1.0,30.0,2.0
28.554288864135742,7,1.0,30.0,2.0
28.565990209579468,560,1.0,30.0,2.0
28.575449466705322,506,1.0,30.0,2.0
28.58558440208435,478,1.0,30.0,2.0
28.595067739486694,27,1.0,30.0,2.0
28.605278730392456,408,1.0,30.0,2.0
28.61384606361389,0,1.0,30.0,2.0
28.625102996826172,686,1.0,30.0,2.0
28.633443355560303,0,1.0,30.0,2.0
28.644495010375977,301,1.0,30.0,2.0
28.65487575531006,81,1.0,30.0,2.0
28.666236639022827,1920,1.0,30.0,2.0
28.675936222076416,1710,1.0,30.0,2.0
28.683208227157593,2032,1.0,30.0,2.0
28.69622039794922,2386,1.0,30.0,2.0
28.70542001724243,1913,1.0,30.0,2.0
28.716295957565308,2464,1.0,30.0,2.0
28.724794626235962,1830,1.0,30.0,2.0
28.73629379272461,2435,1.0,30.0,2.0
28.74430823326111,1531,1.0,30.0,2.0
28.756288528442383,2403,1.0,30.0,2.0
28.76601791381836,1233,1.0,30.0,2.0
28.775850534439087,2345,1.0,30.0,2.0
28.785231590270996,1328,1.0,30.0,2.0
28.79437804222107,1343,1.0,30.0,2.0
28.805548191070557,1091,1.0,30.0,2.0
28.816283702850342,2299,1.0,30.0,2.0
28.825909852981567,1645,1.0,30.0,2.0
28.836202383041382,2166,1.0,30.0,2.0
28.845341205596924,1195,1.0,30.0,2.0
28.856287240982056,2194,1.0,30.0,2.0
28.865267753601074,1182,1.0,30.0,2.0
28.876344680786133,2165,1.0,30.0,2.0
28.885310888290405,1202,1.0,30.0,2.0
28.8951096534729,2125,1.0,30.0,2.0
28.905288696289062,1169,1.0,30.0,2.0
28.915264129638672,1993,1.0,30.0,2.0
28.925312280654907,1206,1.0,30.0,2.0
28.9353346824646,1718,1.0,30.0,2.0
28.94525933265686,976,1.0,30.0,2.0
28.95552349090576,967,1.0,30.0,2.0
28.965312242507935,939,1.0,30.0,2.0
28.97517156600952,905,1.0,30.0,2.0
28.981695413589478,966,1.0,30.0,2.0
28.995383262634277,842,1.0,30.0,2.0
29.005125522613525,912,1.0,30.0,2.0
29.01247549057007,848,1.0,30.0,2.0
29.026071071624756,1065,1.0,30.0,2.0
29.03602933883667,1086,1.0,30.0,2.0
29.045320749282837,742,1.0,30.0,2.0
29.051559925079346,951,1.0,30.0,2.0
29.061684608459473,821,1.0,30.0,2.0
29.07512402534485,992,1.0,30.0,2.0
29.08529257774353,442,1.0,30.0,2.0
29.09522843360901,721,1.0,30.0,2.0
29.10509490966797,138,1.0,30.0,2.0
29.115304231643677,653,1.0,30.0,2.0
29.125741243362427,728,1.0,30.0,2.0
29.13603162765503,1305,1.0,30.0,2.0
29.146202325820923,970,1.0,30.0,2.0
29.152280807495117,655,1.0,30.0,2.0
29.165634155273438,501,1.0,30.0,2.0
29.1752827167511,778,1.0,30.0,2.0
29.183065176010132,784,1.0,30.0,2.0
29.191564798355103,558,1.0,30.0,2.0
29.204574584960938,3,1.0,30.0,2.0
29.215270042419434,415,1.0,30.0,2.0
29.225544691085815,405,1.0,30.0,2.0
29.235581636428833,1098,1.0,30.0,2.0
29.24626922607422,953,1.0,30.0,2.0
29.251142978668213,544,1.0,30.0,2.0
29.265434503555298,413,1.0,30.0,2.0
29.275959730148315,1181,1.0,30.0,2.0
29.2852463722229,722,1.0,30.0,2.0
29.29591202735901,592,1.0,30.0,2.0
29.305302619934082,668,1.0,30.0,2.0
29.31529974937439,511,1.0,30.0,2.0
29.326256275177002,624,1.0,30.0,2.0
29.335235118865967,567,1.0,30.0,2.0
29.34628701210022,640,1.0,30.0,2.0
29.356300592422485,657,1.0,30.0,2.0
29.365239143371582,631,1.0,30.0,2.0
29.3762469291687,639,1.0,30.0,2.0
29.38527488708496,607,1.0,30.0,2.0
29.395206928253174,1107,1.0,30.0,2.0
29.405081272125244,1044,1.0,30.0,2.0
29.41586709022522,1158,1.0,30.0,2.0
29.42531108856201,1066,1.0,30.0,2.0
29.43626117706299,970,1.0,30.0,2.0
29.44190549850464,1057,1.0,30.0,2.0
29.45524573326111,706,1.0,30.0,2.0
29.465898275375366,555,1.0,30.0,2.0
29.475176572799683,453,1.0,30.0,2.0
29.486356496810913,506,1.0,30.0,2.0
29.496357440948486,424,1.0,30.0,2.0
29.505104780197144,42,1.0,30.0,2.0
29.51254439353943,388,1.0,30.0,2.0
29.526291131973267,280,1.0,30.0,2.0
29.535621643066406,927,1.0,30.0,2.0
29.54536724090576,718,1.0,30.0,2.0
29.55087161064148,0,1.0,30.0,2.0
29.564592599868774,0,1.0,30.0,2.0
29.575039386749268,101,1.0,30.0,2.0
29.58215355873108,453,1.0,30.0,2.0
29.59500479698181,0,1.0,30.0,2.0
29.605748176574707,400,1.0,30.0,2.0
29.614871740341187,0,1.0,30.0,2.0
29.62554669380188,448,1.0,30.0,2.0
29.634223222732544,24,1.0,30.0,2.0
29.645081281661987,381,1.0,30.0,2.0
29.64959979057312,226,1.0,30.0,2.0
29.665271520614624,417,1.0,30.0,2.0
29.676118850708008,352,1.0,30.0,2.0
29.686357736587524,538,1.0,30.0,2.0
29.696254014968872,384,1.0,30.0,2.0
29.70625329017639,583,1.0,30.0,2.0
29.715274810791016,432,1.0,30.0,2.0
29.72551727294922,806,1.0,30.0,2.0
29.735389232635498,443,1.0,30.0,2.0
29.746308088302612,899,1.0,30.0,2.0
29.755292892456055,405,1.0,30.0,2.0
29.76628875732422,890,1.0,30.0,2.0
29.775777339935303,509,1.0,30.0,2.0
29.78643250465393,1002,1.0,30.0,2.0
29.79560923576355,793,1.0,30.0,2.0
29.80617117881775,1254,1.0,30.0,2.0
29.815287828445435,454,1.0,30.0,2.0
29.825924158096313,1281,1.0,30.0,2.0
29.8352689743042,566,1.0,30.0,2.0
29.84139919281006,1457,1.0,30.0,2.0
29.85528540611267,300,1.0,30.0,2.0
29.866283893585205,1643,1.0,30.0,2.0
29.874642848968506,354,1.0,30.0,2.0
29.88570261001587,2058,1.0,30.0,2.0
29.89516282081604,0,1.0,30.0,2.0
29.90544557571411,538,1.0,30.0,2.0
29.91106653213501,0,1.0,30.0,2.0
29.924644231796265,0,1.0,30.0,2.0
29.93623924255371,630,1.0,30.0,2.0
29.94435977935791,39,1.0,30.0,2.0
29.94637131690979,0,1.0,30.0,2.0
29.964410305023193,0,1.0,30.0,2.0
29.974546670913696,96,1.0,30.0,2.0
29.98105764389038,0,1.0,30.0,2.0
29.995789289474487,432,1.0,30.0,2.0
