Timestamp,EMG Value,massage_speed,massage_duration,relaxment_level
0.10825586318969727,0,1.0,30.0,2.0
0.1182560920715332,0,1.0,30.0,2.0
0.13532447814941406,1312,1.0,30.0,2.0
0.14536046981811523,1654,1.0,30.0,2.0
0.15435075759887695,1747,1.0,30.0,2.0
0.1652228832244873,2397,1.0,30.0,2.0
0.17420387268066406,1629,1.0,30.0,2.0
0.18418025970458984,365,1.0,30.0,2.0
0.19518589973449707,1616,1.0,30.0,2.0
0.20418715476989746,897,1.0,30.0,2.0
0.2148425579071045,1575,1.0,30.0,2.0
0.2251739501953125,2194,1.0,30.0,2.0
0.23488235473632812,890,1.0,30.0,2.0
0.24454450607299805,3079,1.0,30.0,2.0
0.25516200065612793,1003,1.0,30.0,2.0
0.26519274711608887,1765,1.0,30.0,2.0
0.2743546962738037,1728,1.0,30.0,2.0
0.28537487983703613,1904,1.0,30.0,2.0
0.29436683654785156,1627,1.0,30.0,2.0
0.30431652069091797,3718,1.0,30.0,2.0
0.3143582344055176,656,1.0,30.0,2.0
0.32516980171203613,3865,1.0,30.0,2.0
0.3341829776763916,617,1.0,30.0,2.0
0.345198392868042,3986,1.0,30.0,2.0
0.35518693923950195,585,1.0,30.0,2.0
0.3652019500732422,4095,1.0,30.0,2.0
0.3751847743988037,625,1.0,30.0,2.0
0.3751847743988037,4095,1.0,30.0,2.0
0.39418697357177734,464,1.0,30.0,2.0
0.4051933288574219,2557,1.0,30.0,2.0
0.41417717933654785,1003,1.0,30.0,2.0
0.4249694347381592,1195,1.0,30.0,2.0
0.43479394912719727,1072,1.0,30.0,2.0
0.44515442848205566,1583,1.0,30.0,2.0
0.4512348175048828,1071,1.0,30.0,2.0
0.465195894241333,2317,1.0,30.0,2.0
0.4679553508758545,1100,1.0,30.0,2.0
0.4851710796356201,2231,1.0,30.0,2.0
0.4951767921447754,1115,1.0,30.0,2.0
0.505169153213501,2113,1.0,30.0,2.0
0.5151572227478027,1174,1.0,30.0,2.0
0.5241665840148926,1968,1.0,30.0,2.0
0.5341446399688721,694,1.0,30.0,2.0
0.5451488494873047,1173,1.0,30.0,2.0
0.5550310611724854,1007,1.0,30.0,2.0
0.5641050338745117,1621,1.0,30.0,2.0
0.574272632598877,1099,1.0,30.0,2.0
0.5844578742980957,1666,1.0,30.0,2.0
0.5941729545593262,887,1.0,30.0,2.0
0.6041924953460693,1136,1.0,30.0,2.0
0.6151609420776367,1523,1.0,30.0,2.0
0.6248130798339844,1686,1.0,30.0,2.0
0.6345329284667969,689,1.0,30.0,2.0
0.6442434787750244,1424,1.0,30.0,2.0
0.6542384624481201,4095,1.0,30.0,2.0
0.6616604328155518,1566,1.0,30.0,2.0
0.6743969917297363,706,1.0,30.0,2.0
0.6845722198486328,1741,1.0,30.0,2.0
0.6912894248962402,1306,1.0,30.0,2.0
0.701977014541626,0,1.0,30.0,2.0
0.7142491340637207,1600,1.0,30.0,2.0
0.7219715118408203,0,1.0,30.0,2.0
0.7344076633453369,750,1.0,30.0,2.0
0.7451331615447998,957,1.0,30.0,2.0
0.7549829483032227,1211,1.0,30.0,2.0
0.7605085372924805,1123,1.0,30.0,2.0
0.7747619152069092,450,1.0,30.0,2.0
0.7851898670196533,471,1.0,30.0,2.0
0.7901158332824707,900,1.0,30.0,2.0
0.8046255111694336,1779,1.0,30.0,2.0
0.8141658306121826,1419,1.0,30.0,2.0
0.821974515914917,2251,1.0,30.0,2.0
0.8346390724182129,1346,1.0,30.0,2.0
0.8445336818695068,1453,1.0,30.0,2.0
0.8552889823913574,1202,1.0,30.0,2.0
0.8653085231781006,115,1.0,30.0,2.0
0.8745896816253662,118,1.0,30.0,2.0
0.8852963447570801,234,1.0,30.0,2.0
0.8908877372741699,881,1.0,30.0,2.0
0.9042913913726807,2253,1.0,30.0,2.0
0.9140548706054688,1183,1.0,30.0,2.0
0.9216811656951904,210,1.0,30.0,2.0
0.9341914653778076,764,1.0,30.0,2.0
0.9437243938446045,879,1.0,30.0,2.0
0.9553813934326172,1102,1.0,30.0,2.0
0.9600465297698975,1311,1.0,30.0,2.0
0.9754021167755127,523,1.0,30.0,2.0
0.9852852821350098,1458,1.0,30.0,2.0
0.9943561553955078,848,1.0,30.0,2.0
1.0050885677337646,2429,1.0,30.0,2.0
1.0143096446990967,671,1.0,30.0,2.0
1.0240349769592285,0,1.0,30.0,2.0
1.0342700481414795,394,1.0,30.0,2.0
1.0443394184112549,875,1.0,30.0,2.0
1.0550322532653809,1913,1.0,30.0,2.0
1.0623648166656494,848,1.0,30.0,2.0
1.0743517875671387,1520,1.0,30.0,2.0
1.0848143100738525,768,1.0,30.0,2.0
1.094114065170288,1731,1.0,30.0,2.0
1.1053173542022705,607,1.0,30.0,2.0
1.1153993606567383,1344,1.0,30.0,2.0
1.1243243217468262,1161,1.0,30.0,2.0
1.1353631019592285,1683,1.0,30.0,2.0
1.144320011138916,1296,1.0,30.0,2.0
1.1553242206573486,1199,1.0,30.0,2.0
1.1642849445343018,1038,1.0,30.0,2.0
1.1743769645690918,1255,1.0,30.0,2.0
1.1763737201690674,1310,1.0,30.0,2.0
1.1943104267120361,1318,1.0,30.0,2.0
1.2042961120605469,462,1.0,30.0,2.0
1.2133173942565918,733,1.0,30.0,2.0
1.2241456508636475,1411,1.0,30.0,2.0
1.2342886924743652,455,1.0,30.0,2.0
1.2452630996704102,1298,1.0,30.0,2.0
1.2543683052062988,1209,1.0,30.0,2.0
1.2649524211883545,1351,1.0,30.0,2.0
1.2748041152954102,2031,1.0,30.0,2.0
1.2844560146331787,1353,1.0,30.0,2.0
1.2943618297576904,1184,1.0,30.0,2.0
1.3051848411560059,1280,1.0,30.0,2.0
1.3143126964569092,1198,1.0,30.0,2.0
1.3206243515014648,0,1.0,30.0,2.0
1.3348619937896729,1773,1.0,30.0,2.0
1.3438892364501953,0,1.0,30.0,2.0
1.3518457412719727,1456,1.0,30.0,2.0
1.3643169403076172,1361,1.0,30.0,2.0
1.3742804527282715,1471,1.0,30.0,2.0
1.384124517440796,80,1.0,30.0,2.0
1.3931007385253906,1218,1.0,30.0,2.0
1.4037158489227295,0,1.0,30.0,2.0
1.4153454303741455,1563,1.0,30.0,2.0
1.4181506633758545,1730,1.0,30.0,2.0
1.4351270198822021,1794,1.0,30.0,2.0
1.4441099166870117,1624,1.0,30.0,2.0
1.45145845413208,1728,1.0,30.0,2.0
1.4653048515319824,1636,1.0,30.0,2.0
1.4742796421051025,1621,1.0,30.0,2.0
1.4842936992645264,2898,1.0,30.0,2.0
1.490546703338623,1433,1.0,30.0,2.0
1.5050227642059326,2800,1.0,30.0,2.0
1.510242223739624,1178,1.0,30.0,2.0
1.5241522789001465,1961,1.0,30.0,2.0
1.534888744354248,1472,1.0,30.0,2.0
1.54439115524292,1238,1.0,30.0,2.0
1.554093360900879,1136,1.0,30.0,2.0
1.5608983039855957,1296,1.0,30.0,2.0
1.575113296508789,1136,1.0,30.0,2.0
1.5851635932922363,1715,1.0,30.0,2.0
1.5899438858032227,1289,1.0,30.0,2.0
1.6053650379180908,1248,1.0,30.0,2.0
1.612567663192749,784,1.0,30.0,2.0
1.6211175918579102,1827,1.0,30.0,2.0
1.6344943046569824,463,1.0,30.0,2.0
1.643204689025879,1765,1.0,30.0,2.0
1.654886245727539,1383,1.0,30.0,2.0
1.6643412113189697,1032,1.0,30.0,2.0
1.6737637519836426,880,1.0,30.0,2.0
1.6849639415740967,1948,1.0,30.0,2.0
1.6936564445495605,838,1.0,30.0,2.0
1.7054028511047363,2342,1.0,30.0,2.0
1.713407278060913,713,1.0,30.0,2.0
1.7242555618286133,2705,1.0,30.0,2.0
1.7338647842407227,733,1.0,30.0,2.0
1.7435564994812012,2451,1.0,30.0,2.0
1.7541253566741943,737,1.0,30.0,2.0
1.765310525894165,1424,1.0,30.0,2.0
1.7680885791778564,720,1.0,30.0,2.0
1.784944772720337,1611,1.0,30.0,2.0
1.7877249717712402,758,1.0,30.0,2.0
1.8043310642242432,1601,1.0,30.0,2.0
1.8133347034454346,793,1.0,30.0,2.0
1.824331283569336,2598,1.0,30.0,2.0
1.8340959548950195,794,1.0,30.0,2.0
1.843104362487793,1441,1.0,30.0,2.0
1.85164475440979,809,1.0,30.0,2.0
1.8596513271331787,0,1.0,30.0,2.0
1.8710389137268066,773,1.0,30.0,2.0
1.8849542140960693,2423,1.0,30.0,2.0
1.8883602619171143,748,1.0,30.0,2.0
1.9037079811096191,684,1.0,30.0,2.0
1.9126973152160645,111,1.0,30.0,2.0
1.9194421768188477,1719,1.0,30.0,2.0
1.926900863647461,0,1.0,30.0,2.0
1.9424097537994385,0,1.0,30.0,2.0
1.9516234397888184,142,1.0,30.0,2.0
1.9578919410705566,0,1.0,30.0,2.0
1.974393367767334,1197,1.0,30.0,2.0
1.9841411113739014,297,1.0,30.0,2.0
1.9893698692321777,0,1.0,30.0,2.0
2.003709554672241,0,1.0,30.0,2.0
2.01542329788208,4095,1.0,30.0,2.0
2.0240888595581055,287,1.0,30.0,2.0
2.034334897994995,4095,1.0,30.0,2.0
2.0442123413085938,225,1.0,30.0,2.0
2.051598310470581,4095,1.0,30.0,2.0
2.0653419494628906,1973,1.0,30.0,2.0
2.068279981613159,657,1.0,30.0,2.0
2.0846521854400635,1220,1.0,30.0,2.0
2.0951831340789795,2643,1.0,30.0,2.0
2.104050397872925,38,1.0,30.0,2.0
2.11377215385437,0,1.0,30.0,2.0
2.118896484375,45,1.0,30.0,2.0
2.134406805038452,0,1.0,30.0,2.0
2.1424076557159424,17,1.0,30.0,2.0
2.1515719890594482,1341,1.0,30.0,2.0
2.1653530597686768,2782,1.0,30.0,2.0
2.169099807739258,2608,1.0,30.0,2.0
2.1850645542144775,2586,1.0,30.0,2.0
2.194345712661743,2320,1.0,30.0,2.0
2.2005631923675537,1515,1.0,30.0,2.0
2.214354991912842,2054,1.0,30.0,2.0
2.2182326316833496,703,1.0,30.0,2.0
2.2350282669067383,1789,1.0,30.0,2.0
2.2453737258911133,2064,1.0,30.0,2.0
2.252516031265259,1491,1.0,30.0,2.0
2.265420913696289,1908,1.0,30.0,2.0
2.271348237991333,1394,1.0,30.0,2.0
2.284733295440674,1074,1.0,30.0,2.0
2.295396566390991,1363,1.0,30.0,2.0
2.3045692443847656,2045,1.0,30.0,2.0
2.3143234252929688,1401,1.0,30.0,2.0
2.3241405487060547,2411,1.0,30.0,2.0
2.333603620529175,503,1.0,30.0,2.0
2.342522382736206,2315,1.0,30.0,2.0
2.3518874645233154,864,1.0,30.0,2.0
2.365325927734375,2586,1.0,30.0,2.0
2.372715711593628,1374,1.0,30.0,2.0
2.385138750076294,2172,1.0,30.0,2.0
2.3936502933502197,1469,1.0,30.0,2.0
2.4043617248535156,2200,1.0,30.0,2.0
2.4145424365997314,2846,1.0,30.0,2.0
2.4242465496063232,1179,1.0,30.0,2.0
2.434602975845337,1822,1.0,30.0,2.0
2.4419612884521484,1821,1.0,30.0,2.0
2.454486131668091,1728,1.0,30.0,2.0
2.4638352394104004,2346,1.0,30.0,2.0
2.4743540287017822,1075,1.0,30.0,2.0
2.4853029251098633,1999,1.0,30.0,2.0
2.494539499282837,1218,1.0,30.0,2.0
2.5053327083587646,1851,1.0,30.0,2.0
2.5143675804138184,1457,1.0,30.0,2.0
2.5241873264312744,754,1.0,30.0,2.0
2.533207654953003,709,1.0,30.0,2.0
2.5415663719177246,1561,1.0,30.0,2.0
2.5536916255950928,325,1.0,30.0,2.0
2.5646235942840576,2226,1.0,30.0,2.0
2.5741190910339355,464,1.0,30.0,2.0
2.58486270904541,1872,1.0,30.0,2.0
2.5943655967712402,2915,1.0,30.0,2.0
2.6030774116516113,1741,1.0,30.0,2.0
2.609816551208496,814,1.0,30.0,2.0
2.6253128051757812,1426,1.0,30.0,2.0
2.6340651512145996,390,1.0,30.0,2.0
2.6452174186706543,1795,1.0,30.0,2.0
2.6508824825286865,755,1.0,30.0,2.0
2.663440704345703,2092,1.0,30.0,2.0
2.6753652095794678,1152,1.0,30.0,2.0
2.6850783824920654,1776,1.0,30.0,2.0
2.6946468353271484,2371,1.0,30.0,2.0
2.7042036056518555,1665,1.0,30.0,2.0
2.710463523864746,946,1.0,30.0,2.0
2.724118709564209,1797,1.0,30.0,2.0
2.733168601989746,202,1.0,30.0,2.0
2.744596004486084,1681,1.0,30.0,2.0
2.7518928050994873,272,1.0,30.0,2.0
2.764237880706787,2003,1.0,30.0,2.0
2.775028705596924,1757,1.0,30.0,2.0
2.7848660945892334,1514,1.0,30.0,2.0
2.7887728214263916,802,1.0,30.0,2.0
2.805307626724243,1526,1.0,30.0,2.0
2.8089051246643066,784,1.0,30.0,2.0
2.8243844509124756,1569,1.0,30.0,2.0
2.8253836631774902,769,1.0,30.0,2.0
2.84437894821167,1513,1.0,30.0,2.0
2.8453752994537354,663,1.0,30.0,2.0
2.864419937133789,1431,1.0,30.0,2.0
2.865417242050171,639,1.0,30.0,2.0
2.884383201599121,1408,1.0,30.0,2.0
2.886375904083252,501,1.0,30.0,2.0
2.9042344093322754,1344,1.0,30.0,2.0
2.90523099899292,449,1.0,30.0,2.0
2.924243450164795,1023,1.0,30.0,2.0
2.9338183403015137,399,1.0,30.0,2.0
2.9414479732513428,1165,1.0,30.0,2.0
2.9538235664367676,362,1.0,30.0,2.0
2.9638757705688477,1373,1.0,30.0,2.0
2.96999454498291,457,1.0,30.0,2.0
2.9853289127349854,1312,1.0,30.0,2.0
2.9935028553009033,1204,1.0,30.0,2.0
3.0043704509735107,1301,1.0,30.0,2.0
3.005368709564209,992,1.0,30.0,2.0
3.024425745010376,1485,1.0,30.0,2.0
3.025423288345337,637,1.0,30.0,2.0
3.0443530082702637,1395,1.0,30.0,2.0
3.04535174369812,747,1.0,30.0,2.0
3.056457757949829,1400,1.0,30.0,2.0
3.0665009021759033,662,1.0,30.0,2.0
3.0843138694763184,1325,1.0,30.0,2.0
3.085310935974121,469,1.0,30.0,2.0
3.0953140258789062,1298,1.0,30.0,2.0
3.105313539505005,727,1.0,30.0,2.0
3.124208688735962,1218,1.0,30.0,2.0
3.125213623046875,688,1.0,30.0,2.0
3.1436967849731445,1293,1.0,30.0,2.0
3.1541850566864014,503,1.0,30.0,2.0
3.165161371231079,1296,1.0,30.0,2.0
3.1698157787323,841,1.0,30.0,2.0
3.1840617656707764,1265,1.0,30.0,2.0
3.194190740585327,599,1.0,30.0,2.0
3.20054030418396,1375,1.0,30.0,2.0
3.2105441093444824,578,1.0,30.0,2.0
3.2205452919006348,1318,1.0,30.0,2.0
3.230544090270996,583,1.0,30.0,2.0
3.245169162750244,1354,1.0,30.0,2.0
3.245169162750244,551,1.0,30.0,2.0
3.2562520503997803,1309,1.0,30.0,2.0
3.266261339187622,472,1.0,30.0,2.0
3.284306049346924,1088,1.0,30.0,2.0
3.2942850589752197,1184,1.0,30.0,2.0
3.3049373626708984,1296,1.0,30.0,2.0
3.3142831325531006,1552,1.0,30.0,2.0
3.316258668899536,560,1.0,30.0,2.0
3.3262665271759033,1758,1.0,30.0,2.0
3.336266279220581,1264,1.0,30.0,2.0
3.3540966510772705,1424,1.0,30.0,2.0
3.3642218112945557,1072,1.0,30.0,2.0
3.3737168312072754,1310,1.0,30.0,2.0
3.383964776992798,0,1.0,30.0,2.0
3.3931961059570312,169,1.0,30.0,2.0
3.401003837585449,0,1.0,30.0,2.0
3.4090185165405273,176,1.0,30.0,2.0
3.417083740234375,0,1.0,30.0,2.0
3.4270846843719482,160,1.0,30.0,2.0
3.4370837211608887,0,1.0,30.0,2.0
3.44708514213562,144,1.0,30.0,2.0
3.457085371017456,862,1.0,30.0,2.0
3.46708345413208,119,1.0,30.0,2.0
3.4770827293395996,394,1.0,30.0,2.0
3.4939382076263428,751,1.0,30.0,2.0
3.503965377807617,231,1.0,30.0,2.0
3.5139646530151367,164,1.0,30.0,2.0
3.5239620208740234,187,1.0,30.0,2.0
3.5339646339416504,199,1.0,30.0,2.0
3.5439634323120117,272,1.0,30.0,2.0
3.5539748668670654,221,1.0,30.0,2.0
3.564697027206421,211,1.0,30.0,2.0
3.574084997177124,234,1.0,30.0,2.0
3.5832712650299072,145,1.0,30.0,2.0
3.5923006534576416,176,1.0,30.0,2.0
3.6041290760040283,113,1.0,30.0,2.0
3.612192153930664,144,1.0,30.0,2.0
3.6183855533599854,80,1.0,30.0,2.0
3.634125232696533,178,1.0,30.0,2.0
3.635822057723999,61,1.0,30.0,2.0
3.645866870880127,216,1.0,30.0,2.0
3.6558656692504883,45,1.0,30.0,2.0
3.665865182876587,240,1.0,30.0,2.0
3.6775851249694824,1953,1.0,30.0,2.0
3.6916186809539795,240,1.0,30.0,2.0
3.7028770446777344,1478,1.0,30.0,2.0
3.7128851413726807,255,1.0,30.0,2.0
3.722885847091675,1252,1.0,30.0,2.0
3.7328851222991943,1011,1.0,30.0,2.0
3.7439684867858887,714,1.0,30.0,2.0
3.753983736038208,249,1.0,30.0,2.0
3.763979911804199,778,1.0,30.0,2.0
3.774071216583252,282,1.0,30.0,2.0
3.78310489654541,647,1.0,30.0,2.0
3.793961524963379,240,1.0,30.0,2.0
3.8007001876831055,443,1.0,30.0,2.0
3.8087103366851807,122,1.0,30.0,2.0
3.8239481449127197,267,1.0,30.0,2.0
3.8340466022491455,1328,1.0,30.0,2.0
3.843034267425537,259,1.0,30.0,2.0
3.8530349731445312,826,1.0,30.0,2.0
3.8630597591400146,1111,1.0,30.0,2.0
3.873035192489624,1270,1.0,30.0,2.0
3.884061813354492,1376,1.0,30.0,2.0
3.891780138015747,763,1.0,30.0,2.0
3.901787042617798,459,1.0,30.0,2.0
3.91397762298584,1092,1.0,30.0,2.0
3.92399001121521,384,1.0,30.0,2.0
3.9339873790740967,1392,1.0,30.0,2.0
3.9442176818847656,1246,1.0,30.0,2.0
3.9464728832244873,1527,1.0,30.0,2.0
3.9564874172210693,377,1.0,30.0,2.0
3.9664876461029053,1443,1.0,30.0,2.0
3.983959436416626,333,1.0,30.0,2.0
3.9938302040100098,720,1.0,30.0,2.0
4.0008838176727295,1074,1.0,30.0,2.0
4.009876012802124,292,1.0,30.0,2.0
4.017529249191284,1107,1.0,30.0,2.0
4.026597261428833,176,1.0,30.0,2.0
4.035674810409546,1168,1.0,30.0,2.0
4.04569673538208,256,1.0,30.0,2.0
4.055680990219116,1050,1.0,30.0,2.0
4.067060708999634,287,1.0,30.0,2.0
4.077067613601685,1068,1.0,30.0,2.0
4.0870678424835205,194,1.0,30.0,2.0
4.097067594528198,989,1.0,30.0,2.0
4.107067584991455,183,1.0,30.0,2.0
4.117067575454712,1114,1.0,30.0,2.0
4.127067804336548,154,1.0,30.0,2.0
4.138180494308472,1007,1.0,30.0,2.0
4.1481969356536865,176,1.0,30.0,2.0
4.1581971645355225,563,1.0,30.0,2.0
4.1682257652282715,161,1.0,30.0,2.0
4.178197383880615,1008,1.0,30.0,2.0
4.1922430992126465,153,1.0,30.0,2.0
4.2037034034729,908,1.0,30.0,2.0
4.212721109390259,508,1.0,30.0,2.0
4.2239720821380615,443,1.0,30.0,2.0
4.233845233917236,155,1.0,30.0,2.0
4.243890047073364,317,1.0,30.0,2.0
4.2538604736328125,143,1.0,30.0,2.0
4.263863563537598,368,1.0,30.0,2.0
4.273864030838013,400,1.0,30.0,2.0
4.283860206604004,307,1.0,30.0,2.0
4.29386043548584,128,1.0,30.0,2.0
4.303896188735962,368,1.0,30.0,2.0
4.304893493652344,1939,1.0,30.0,2.0
4.3149025440216064,2185,1.0,30.0,2.0
4.324904203414917,2191,1.0,30.0,2.0
4.340776205062866,2057,1.0,30.0,2.0
4.350780010223389,1845,1.0,30.0,2.0
4.360782146453857,1895,1.0,30.0,2.0
4.370779991149902,1498,1.0,30.0,2.0
4.380780220031738,1255,1.0,30.0,2.0
4.390779972076416,1370,1.0,30.0,2.0
4.403392314910889,976,1.0,30.0,2.0
4.4140424728393555,976,1.0,30.0,2.0
4.417683839797974,617,1.0,30.0,2.0
4.434088945388794,491,1.0,30.0,2.0
4.443135976791382,491,1.0,30.0,2.0
4.450609922409058,363,1.0,30.0,2.0
4.463999271392822,384,1.0,30.0,2.0
4.474010467529297,384,1.0,30.0,2.0
4.484095335006714,396,1.0,30.0,2.0
4.485091924667358,334,1.0,30.0,2.0
4.495099067687988,384,1.0,30.0,2.0
4.5051000118255615,328,1.0,30.0,2.0
4.518839120864868,433,1.0,30.0,2.0
4.533824443817139,315,1.0,30.0,2.0
4.535905361175537,435,1.0,30.0,2.0
4.54591178894043,298,1.0,30.0,2.0
4.555912494659424,412,1.0,30.0,2.0
4.565911769866943,235,1.0,30.0,2.0
4.575912952423096,288,1.0,30.0,2.0
4.585911989212036,118,1.0,30.0,2.0
4.595911741256714,187,1.0,30.0,2.0
4.613882541656494,27,1.0,30.0,2.0
4.6219868659973145,92,1.0,30.0,2.0
4.633862257003784,0,1.0,30.0,2.0
4.643928289413452,61,1.0,30.0,2.0
4.650395631790161,0,1.0,30.0,2.0
4.660572052001953,26,1.0,30.0,2.0
4.673947095870972,0,1.0,30.0,2.0
4.6839599609375,0,1.0,30.0,2.0
4.693958759307861,0,1.0,30.0,2.0
4.703955888748169,0,1.0,30.0,2.0
4.705116033554077,0,1.0,30.0,2.0
4.71512770652771,0,1.0,30.0,2.0
4.725129127502441,0,1.0,30.0,2.0
4.735130071640015,0,1.0,30.0,2.0
4.745129108428955,0,1.0,30.0,2.0
4.755128860473633,0,1.0,30.0,2.0
4.765130281448364,0,1.0,30.0,2.0
4.775129318237305,0,1.0,30.0,2.0
4.785129070281982,0,1.0,30.0,2.0
4.79512882232666,0,1.0,30.0,2.0
4.8051300048828125,0,1.0,30.0,2.0
4.815128803253174,0,1.0,30.0,2.0
4.833888530731201,0,1.0,30.0,2.0
4.841123342514038,0,1.0,30.0,2.0
4.85338830947876,0,1.0,30.0,2.0
4.8571600914001465,0,1.0,30.0,2.0
4.867347955703735,0,1.0,30.0,2.0
4.8834521770477295,933,1.0,30.0,2.0
4.884449005126953,800,1.0,30.0,2.0
4.895491123199463,357,1.0,30.0,2.0
4.90678071975708,149,1.0,30.0,2.0
4.916806697845459,640,1.0,30.0,2.0
4.926797151565552,439,1.0,30.0,2.0
4.936796426773071,582,1.0,30.0,2.0
4.946815729141235,368,1.0,30.0,2.0
4.956796646118164,598,1.0,30.0,2.0
4.966796636581421,799,1.0,30.0,2.0
4.976795196533203,821,1.0,30.0,2.0
4.986795425415039,1090,1.0,30.0,2.0
4.996795415878296,949,1.0,30.0,2.0
5.006795406341553,1269,1.0,30.0,2.0
5.023966073989868,1200,1.0,30.0,2.0
5.033978700637817,1925,1.0,30.0,2.0
5.044145822525024,1311,1.0,30.0,2.0
5.053772211074829,4095,1.0,30.0,2.0
5.062023162841797,1904,1.0,30.0,2.0
5.068347930908203,4095,1.0,30.0,2.0
5.084083557128906,1505,1.0,30.0,2.0
5.092105388641357,2198,1.0,30.0,2.0
5.100129842758179,1372,1.0,30.0,2.0
5.113939523696899,1266,1.0,30.0,2.0
5.12395167350769,1297,1.0,30.0,2.0
5.13394832611084,1374,1.0,30.0,2.0
5.143951892852783,1318,1.0,30.0,2.0
5.153951644897461,1504,1.0,30.0,2.0
5.163951635360718,1371,1.0,30.0,2.0
5.173974275588989,1702,1.0,30.0,2.0
5.183974266052246,1430,1.0,30.0,2.0
5.194015264511108,1827,1.0,30.0,2.0
5.204129219055176,1473,1.0,30.0,2.0
5.214137315750122,1878,1.0,30.0,2.0
5.224136590957642,1616,1.0,30.0,2.0
5.2341368198394775,1899,1.0,30.0,2.0
5.244137287139893,1779,1.0,30.0,2.0
5.2544026374816895,1883,1.0,30.0,2.0
5.264097452163696,1808,1.0,30.0,2.0
5.271684646606445,1970,1.0,30.0,2.0
5.283920764923096,1869,1.0,30.0,2.0
5.292943716049194,2038,1.0,30.0,2.0
5.300516843795776,1933,1.0,30.0,2.0
5.3135974407196045,2195,1.0,30.0,2.0
5.323783874511719,1985,1.0,30.0,2.0
5.324780702590942,2225,1.0,30.0,2.0
5.334786415100098,2013,1.0,30.0,2.0
5.344785213470459,2283,1.0,30.0,2.0
5.35478663444519,2031,1.0,30.0,2.0
5.370981454849243,2368,1.0,30.0,2.0
5.3770153522491455,2000,1.0,30.0,2.0
5.387054920196533,2150,1.0,30.0,2.0
5.397053480148315,2035,1.0,30.0,2.0
5.407054424285889,2368,1.0,30.0,2.0
5.417051553726196,2031,1.0,30.0,2.0
5.4339680671691895,2390,1.0,30.0,2.0
5.4439849853515625,2023,1.0,30.0,2.0
5.4539794921875,2429,1.0,30.0,2.0
5.464096546173096,2094,1.0,30.0,2.0
5.473904371261597,2391,1.0,30.0,2.0
5.483702659606934,2097,1.0,30.0,2.0
5.493960857391357,2014,1.0,30.0,2.0
5.501475095748901,1683,1.0,30.0,2.0
5.50948691368103,1662,1.0,30.0,2.0
5.516944169998169,1577,1.0,30.0,2.0
5.527010202407837,1573,1.0,30.0,2.0
5.536989688873291,1466,1.0,30.0,2.0
5.547021865844727,1817,1.0,30.0,2.0
5.55698823928833,2004,1.0,30.0,2.0
5.567006349563599,1586,1.0,30.0,2.0
5.576988220214844,1290,1.0,30.0,2.0
5.586988210678101,1359,1.0,30.0,2.0
5.603964805603027,848,1.0,30.0,2.0
5.614083766937256,1239,1.0,30.0,2.0
5.624101161956787,870,1.0,30.0,2.0
5.634101629257202,1342,1.0,30.0,2.0
5.644102334976196,831,1.0,30.0,2.0
5.6541008949279785,1674,1.0,30.0,2.0
5.656337738037109,791,1.0,30.0,2.0
5.669933795928955,1124,1.0,30.0,2.0
5.683581352233887,778,1.0,30.0,2.0
5.686835765838623,996,1.0,30.0,2.0
5.701763868331909,780,1.0,30.0,2.0
5.710911750793457,1102,1.0,30.0,2.0
5.7178919315338135,640,1.0,30.0,2.0
5.728941202163696,448,1.0,30.0,2.0
5.7389702796936035,503,1.0,30.0,2.0
5.748975038528442,596,1.0,30.0,2.0
5.758947849273682,485,1.0,30.0,2.0
5.768948793411255,752,1.0,30.0,2.0
5.778952598571777,249,1.0,30.0,2.0
5.790038824081421,593,1.0,30.0,2.0
5.800070285797119,4095,1.0,30.0,2.0
5.8100714683532715,489,1.0,30.0,2.0
5.820070266723633,4095,1.0,30.0,2.0
5.8311285972595215,429,1.0,30.0,2.0
5.84396505355835,177,1.0,30.0,2.0
5.853982448577881,422,1.0,30.0,2.0
5.863982439041138,203,1.0,30.0,2.0
5.873977422714233,534,1.0,30.0,2.0
5.8848817348480225,208,1.0,30.0,2.0
5.892658710479736,590,1.0,30.0,2.0
5.904157400131226,209,1.0,30.0,2.0
5.913161277770996,598,1.0,30.0,2.0
5.91939377784729,221,1.0,30.0,2.0
5.933534860610962,643,1.0,30.0,2.0
5.934533596038818,232,1.0,30.0,2.0
5.953954458236694,639,1.0,30.0,2.0
5.9639809131622314,1241,1.0,30.0,2.0
5.974130153656006,663,1.0,30.0,2.0
5.975127220153809,494,1.0,30.0,2.0
5.985142707824707,684,1.0,30.0,2.0
5.995142698287964,448,1.0,30.0,2.0
6.005143165588379,873,1.0,30.0,2.0
6.0151426792144775,474,1.0,30.0,2.0
6.033965110778809,714,1.0,30.0,2.0
6.043977499008179,423,1.0,30.0,2.0
6.0539772510528564,640,1.0,30.0,2.0
6.064066648483276,707,1.0,30.0,2.0
6.064066648483276,603,1.0,30.0,2.0
6.075053691864014,598,1.0,30.0,2.0
6.086492538452148,649,1.0,30.0,2.0
6.100742816925049,643,1.0,30.0,2.0
6.111155986785889,656,1.0,30.0,2.0
6.116547584533691,569,1.0,30.0,2.0
6.132548570632935,657,1.0,30.0,2.0
6.142705917358398,563,1.0,30.0,2.0
6.15012788772583,590,1.0,30.0,2.0
6.160175085067749,570,1.0,30.0,2.0
6.1739654541015625,713,1.0,30.0,2.0
6.183985948562622,565,1.0,30.0,2.0
6.194113731384277,560,1.0,30.0,2.0
6.195109605789185,501,1.0,30.0,2.0
6.205119371414185,545,1.0,30.0,2.0
6.223973989486694,624,1.0,30.0,2.0
6.2339866161346436,739,1.0,30.0,2.0
6.2439866065979,561,1.0,30.0,2.0
6.254254102706909,559,1.0,30.0,2.0
6.258573055267334,478,1.0,30.0,2.0
6.273965120315552,560,1.0,30.0,2.0
6.283980131149292,525,1.0,30.0,2.0
6.293977499008179,599,1.0,30.0,2.0
6.30398416519165,493,1.0,30.0,2.0
6.314119815826416,573,1.0,30.0,2.0
6.319550514221191,539,1.0,30.0,2.0
6.333784818649292,528,1.0,30.0,2.0
6.342812538146973,516,1.0,30.0,2.0
6.352106094360352,507,1.0,30.0,2.0
6.360132217407227,495,1.0,30.0,2.0
6.367785215377808,519,1.0,30.0,2.0
6.377798080444336,496,1.0,30.0,2.0
6.387798070907593,518,1.0,30.0,2.0
6.403741121292114,517,1.0,30.0,2.0
6.404777765274048,498,1.0,30.0,2.0
6.41478157043457,518,1.0,30.0,2.0
6.424810409545898,484,1.0,30.0,2.0
6.4347827434539795,502,1.0,30.0,2.0
6.44478440284729,432,1.0,30.0,2.0
6.454782009124756,497,1.0,30.0,2.0
6.464781999588013,455,1.0,30.0,2.0
6.47478723526001,496,1.0,30.0,2.0
6.485903263092041,448,1.0,30.0,2.0
6.495910167694092,485,1.0,30.0,2.0
6.505910158157349,421,1.0,30.0,2.0
6.523938894271851,976,1.0,30.0,2.0
6.533389568328857,1953,1.0,30.0,2.0
6.541402816772461,1910,1.0,30.0,2.0
6.553961515426636,1577,1.0,30.0,2.0
6.561971187591553,1257,1.0,30.0,2.0
6.566823959350586,1163,1.0,30.0,2.0
6.576836824417114,1151,1.0,30.0,2.0
6.586836099624634,930,1.0,30.0,2.0
6.596837520599365,868,1.0,30.0,2.0
6.606836557388306,1510,1.0,30.0,2.0
6.616836309432983,845,1.0,30.0,2.0
6.62683629989624,1357,1.0,30.0,2.0
6.636836290359497,960,1.0,30.0,2.0
6.646839618682861,998,1.0,30.0,2.0
6.656843662261963,942,1.0,30.0,2.0
6.666851043701172,905,1.0,30.0,2.0
6.67683744430542,880,1.0,30.0,2.0
6.686837673187256,804,1.0,30.0,2.0
6.696837425231934,774,1.0,30.0,2.0
6.707852363586426,666,1.0,30.0,2.0
6.717991590499878,749,1.0,30.0,2.0
6.733213186264038,613,1.0,30.0,2.0
6.740304231643677,661,1.0,30.0,2.0
6.7484354972839355,656,1.0,30.0,2.0
6.762740612030029,593,1.0,30.0,2.0
6.766690015792847,577,1.0,30.0,2.0
6.783960819244385,538,1.0,30.0,2.0
6.791981935501099,501,1.0,30.0,2.0
6.803946495056152,432,1.0,30.0,2.0
6.813957691192627,500,1.0,30.0,2.0
6.823960304260254,421,1.0,30.0,2.0
6.8339598178863525,477,1.0,30.0,2.0
6.843958854675293,387,1.0,30.0,2.0
6.853964328765869,442,1.0,30.0,2.0
6.863938331604004,342,1.0,30.0,2.0
6.873950481414795,413,1.0,30.0,2.0
6.883949279785156,305,1.0,30.0,2.0
6.893950462341309,369,1.0,30.0,2.0
6.903950929641724,316,1.0,30.0,2.0
6.914079904556274,384,1.0,30.0,2.0
6.920293569564819,304,1.0,30.0,2.0
6.930298089981079,361,1.0,30.0,2.0
6.9428675174713135,299,1.0,30.0,2.0
6.9537739753723145,385,1.0,30.0,2.0
6.956596374511719,313,1.0,30.0,2.0
6.966737508773804,438,1.0,30.0,2.0
6.9839348793029785,304,1.0,30.0,2.0
6.9919445514678955,399,1.0,30.0,2.0
7.000992298126221,280,1.0,30.0,2.0
7.011000871658325,335,1.0,30.0,2.0
7.016509294509888,253,1.0,30.0,2.0
7.026517391204834,297,1.0,30.0,2.0
7.036516189575195,266,1.0,30.0,2.0
7.046515941619873,337,1.0,30.0,2.0
7.056516170501709,297,1.0,30.0,2.0
7.066516160964966,332,1.0,30.0,2.0
7.078189134597778,272,1.0,30.0,2.0
7.088186264038086,298,1.0,30.0,2.0
7.102045297622681,277,1.0,30.0,2.0
7.112061262130737,287,1.0,30.0,2.0
7.122061491012573,240,1.0,30.0,2.0
7.132061243057251,304,1.0,30.0,2.0
7.142062425613403,273,1.0,30.0,2.0
7.154031038284302,332,1.0,30.0,2.0
7.15662956237793,209,1.0,30.0,2.0
7.174121379852295,255,1.0,30.0,2.0
7.183983325958252,243,1.0,30.0,2.0
7.191994905471802,208,1.0,30.0,2.0
7.203960657119751,222,1.0,30.0,2.0
7.211970567703247,192,1.0,30.0,2.0
7.216595649719238,192,1.0,30.0,2.0
7.227571487426758,192,1.0,30.0,2.0
7.237570285797119,119,1.0,30.0,2.0
7.247570991516113,0,1.0,30.0,2.0
7.257580041885376,4095,1.0,30.0,2.0
7.267572641372681,109,1.0,30.0,2.0
7.277576923370361,639,1.0,30.0,2.0
7.28757119178772,140,1.0,30.0,2.0
7.29757022857666,392,1.0,30.0,2.0
7.307569980621338,112,1.0,30.0,2.0
7.317570686340332,366,1.0,30.0,2.0
7.327569961547852,135,1.0,30.0,2.0
7.337571144104004,165,1.0,30.0,2.0
7.347569942474365,110,1.0,30.0,2.0
7.3602893352508545,6,1.0,30.0,2.0
7.3733978271484375,48,1.0,30.0,2.0
7.38334059715271,0,1.0,30.0,2.0
7.391355752944946,17,1.0,30.0,2.0
7.40396785736084,0,1.0,30.0,2.0
7.411999464035034,48,1.0,30.0,2.0
7.423293113708496,105,1.0,30.0,2.0
7.426249980926514,339,1.0,30.0,2.0
7.4362547397613525,4095,1.0,30.0,2.0
7.4541542530059814,817,1.0,30.0,2.0
7.4621641635894775,4095,1.0,30.0,2.0
7.469147205352783,4095,1.0,30.0,2.0
7.477817058563232,4095,1.0,30.0,2.0
7.494164705276489,4095,1.0,30.0,2.0
7.500816345214844,4095,1.0,30.0,2.0
7.513813257217407,4095,1.0,30.0,2.0
7.523849010467529,4095,1.0,30.0,2.0
7.533610105514526,4095,1.0,30.0,2.0
7.541172027587891,4095,1.0,30.0,2.0
7.553851127624512,4095,1.0,30.0,2.0
7.563166856765747,4095,1.0,30.0,2.0
7.574142694473267,4095,1.0,30.0,2.0
7.58363151550293,4095,1.0,30.0,2.0
7.593475341796875,4095,1.0,30.0,2.0
7.603424310684204,4095,1.0,30.0,2.0
7.614075183868408,4095,1.0,30.0,2.0
7.623956203460693,147,1.0,30.0,2.0
7.633726119995117,0,1.0,30.0,2.0
7.6391825675964355,0,1.0,30.0,2.0
7.65313982963562,0,1.0,30.0,2.0
7.654139757156372,0,1.0,30.0,2.0
7.674153089523315,0,1.0,30.0,2.0
7.683547019958496,0,1.0,30.0,2.0
7.6915576457977295,3,1.0,30.0,2.0
7.7034783363342285,0,1.0,30.0,2.0
7.707779407501221,43,1.0,30.0,2.0
7.721673250198364,0,1.0,30.0,2.0
7.733695030212402,9,1.0,30.0,2.0
7.7444069385528564,0,1.0,30.0,2.0
7.753418207168579,0,1.0,30.0,2.0
7.755413055419922,0,1.0,30.0,2.0
7.772956848144531,33,1.0,30.0,2.0
7.783528804779053,0,1.0,30.0,2.0
7.793559789657593,39,1.0,30.0,2.0
7.8032145500183105,0,1.0,30.0,2.0
7.8090269565582275,0,1.0,30.0,2.0
7.824288845062256,715,1.0,30.0,2.0
7.833671569824219,449,1.0,30.0,2.0
7.841277599334717,4095,1.0,30.0,2.0
7.85399866104126,753,1.0,30.0,2.0
7.861851930618286,4095,1.0,30.0,2.0
7.871845960617065,1860,1.0,30.0,2.0
7.883848190307617,4095,1.0,30.0,2.0
7.8923139572143555,1483,1.0,30.0,2.0
7.903639316558838,4095,1.0,30.0,2.0
7.90668797492981,2000,1.0,30.0,2.0
7.923847198486328,4095,1.0,30.0,2.0
7.934101819992065,3215,1.0,30.0,2.0
7.942362070083618,4095,1.0,30.0,2.0
7.953479528427124,1661,1.0,30.0,2.0
7.96179461479187,4095,1.0,30.0,2.0
7.974146127700806,3924,1.0,30.0,2.0
7.983800888061523,4095,1.0,30.0,2.0
7.991617679595947,4095,1.0,30.0,2.0
8.00330638885498,2585,1.0,30.0,2.0
8.01413106918335,2206,1.0,30.0,2.0
8.024159908294678,0,1.0,30.0,2.0
8.032065391540527,1323,1.0,30.0,2.0
8.039356708526611,0,1.0,30.0,2.0
8.053672790527344,560,1.0,30.0,2.0
8.056641817092896,0,1.0,30.0,2.0
8.073907852172852,361,1.0,30.0,2.0
8.08338737487793,0,1.0,30.0,2.0
8.09079909324646,0,1.0,30.0,2.0
8.104056596755981,0,1.0,30.0,2.0
8.107939720153809,0,1.0,30.0,2.0
8.124214887619019,0,1.0,30.0,2.0
8.133493900299072,0,1.0,30.0,2.0
8.138870239257812,0,1.0,30.0,2.0
8.15418267250061,54,1.0,30.0,2.0
8.159884214401245,0,1.0,30.0,2.0
8.174347877502441,865,1.0,30.0,2.0
8.183618307113647,0,1.0,30.0,2.0
8.189963102340698,118,1.0,30.0,2.0
8.203551530838013,0,1.0,30.0,2.0
8.209275007247925,92,1.0,30.0,2.0
8.22418761253357,0,1.0,30.0,2.0
8.233526229858398,193,1.0,30.0,2.0
8.238627910614014,0,1.0,30.0,2.0
8.253246784210205,255,1.0,30.0,2.0
8.259709596633911,16,1.0,30.0,2.0
8.274276494979858,155,1.0,30.0,2.0
8.28341794013977,177,1.0,30.0,2.0
8.290485620498657,53,1.0,30.0,2.0
8.30397343635559,2714,1.0,30.0,2.0
8.306392431259155,595,1.0,30.0,2.0
8.32345199584961,4095,1.0,30.0,2.0
8.333590745925903,2166,1.0,30.0,2.0
8.337328672409058,4095,1.0,30.0,2.0
8.353985071182251,482,1.0,30.0,2.0
8.361614227294922,4095,1.0,30.0,2.0
8.373981952667236,625,1.0,30.0,2.0
8.383508920669556,2159,1.0,30.0,2.0
8.392373323440552,183,1.0,30.0,2.0
8.40343165397644,1527,1.0,30.0,2.0
8.414345264434814,455,1.0,30.0,2.0
8.423847913742065,0,1.0,30.0,2.0
8.433347702026367,286,1.0,30.0,2.0
8.443942070007324,0,1.0,30.0,2.0
8.453943490982056,0,1.0,30.0,2.0
8.460176229476929,21,1.0,30.0,2.0
8.472017288208008,0,1.0,30.0,2.0
8.483620166778564,16,1.0,30.0,2.0
8.490204811096191,43,1.0,30.0,2.0
8.503400564193726,34,1.0,30.0,2.0
8.505395889282227,1259,1.0,30.0,2.0
8.521913528442383,15,1.0,30.0,2.0
8.533573150634766,888,1.0,30.0,2.0
8.542657852172852,10,1.0,30.0,2.0
8.554097890853882,261,1.0,30.0,2.0
8.559190034866333,9,1.0,30.0,2.0
8.573482751846313,0,1.0,30.0,2.0
8.583251476287842,10,1.0,30.0,2.0
8.589853525161743,2335,1.0,30.0,2.0
8.603697061538696,48,1.0,30.0,2.0
8.606374263763428,1379,1.0,30.0,2.0
8.623312711715698,19,1.0,30.0,2.0
8.63274884223938,1977,1.0,30.0,2.0
8.644370555877686,32,1.0,30.0,2.0
8.653470277786255,912,1.0,30.0,2.0
8.658986806869507,50,1.0,30.0,2.0
8.674309968948364,606,1.0,30.0,2.0
8.683431386947632,39,1.0,30.0,2.0
8.689727783203125,0,1.0,30.0,2.0
8.7037832736969,41,1.0,30.0,2.0
8.705941438674927,2190,1.0,30.0,2.0
8.723589658737183,144,1.0,30.0,2.0
8.73354959487915,0,1.0,30.0,2.0
8.744082927703857,4095,1.0,30.0,2.0
8.753904819488525,0,1.0,30.0,2.0
8.760772705078125,1185,1.0,30.0,2.0
8.771775722503662,61,1.0,30.0,2.0
8.784317970275879,1115,1.0,30.0,2.0
8.791210412979126,1280,1.0,30.0,2.0
8.803312301635742,1642,1.0,30.0,2.0
8.813741445541382,67,1.0,30.0,2.0
8.824031352996826,2006,1.0,30.0,2.0
8.834591388702393,178,1.0,30.0,2.0
8.84427523612976,448,1.0,30.0,2.0
8.853712558746338,83,1.0,30.0,2.0
8.85973834991455,235,1.0,30.0,2.0
8.874794721603394,223,1.0,30.0,2.0
8.88336443901062,0,1.0,30.0,2.0
8.890912055969238,1139,1.0,30.0,2.0
8.904147386550903,21,1.0,30.0,2.0
8.9051353931427,525,1.0,30.0,2.0
8.923423528671265,0,1.0,30.0,2.0
8.933557510375977,278,1.0,30.0,2.0
8.94298791885376,0,1.0,30.0,2.0
8.95382022857666,0,1.0,30.0,2.0
8.957334041595459,0,1.0,30.0,2.0
8.97411823272705,1072,1.0,30.0,2.0
8.983498334884644,0,1.0,30.0,2.0
8.9900541305542,1205,1.0,30.0,2.0
9.004007816314697,4,1.0,30.0,2.0
9.004983901977539,1077,1.0,30.0,2.0
9.022660255432129,3,1.0,30.0,2.0
9.034290552139282,1268,1.0,30.0,2.0
9.043835639953613,7,1.0,30.0,2.0
9.053915739059448,1040,1.0,30.0,2.0
9.059144258499146,18,1.0,30.0,2.0
9.073211669921875,1200,1.0,30.0,2.0
9.083253622055054,15,1.0,30.0,2.0
9.093045234680176,1086,1.0,30.0,2.0
9.104088306427002,0,1.0,30.0,2.0
9.105042695999146,1200,1.0,30.0,2.0
9.122098684310913,0,1.0,30.0,2.0
9.134288549423218,1062,1.0,30.0,2.0
9.142671585083008,0,1.0,30.0,2.0
9.153853416442871,2509,1.0,30.0,2.0
9.157174825668335,37,1.0,30.0,2.0
9.17365837097168,655,1.0,30.0,2.0
9.183442831039429,0,1.0,30.0,2.0
9.190566778182983,1008,1.0,30.0,2.0
9.203802108764648,16,1.0,30.0,2.0
9.206859827041626,1051,1.0,30.0,2.0
9.223711967468262,0,1.0,30.0,2.0
9.233623743057251,0,1.0,30.0,2.0
9.243485689163208,783,1.0,30.0,2.0
9.253840208053589,1181,1.0,30.0,2.0
9.25951075553894,1113,1.0,30.0,2.0
9.27421236038208,2096,1.0,30.0,2.0
9.283768892288208,1985,1.0,30.0,2.0
9.291950702667236,285,1.0,30.0,2.0
9.303612470626831,0,1.0,30.0,2.0
9.313926935195923,0,1.0,30.0,2.0
9.32430362701416,0,1.0,30.0,2.0
9.334558010101318,1134,1.0,30.0,2.0
9.342452764511108,1,1.0,30.0,2.0
9.35403037071228,1146,1.0,30.0,2.0
9.355778455734253,0,1.0,30.0,2.0
9.37290096282959,356,1.0,30.0,2.0
9.383463382720947,0,1.0,30.0,2.0
9.390898942947388,386,1.0,30.0,2.0
9.40396523475647,0,1.0,30.0,2.0
9.406596183776855,336,1.0,30.0,2.0
9.42228364944458,0,1.0,30.0,2.0
9.433408260345459,959,1.0,30.0,2.0
9.443999767303467,0,1.0,30.0,2.0
9.453527688980103,341,1.0,30.0,2.0
9.464194774627686,0,1.0,30.0,2.0
9.47344970703125,2158,1.0,30.0,2.0
9.484282732009888,2345,1.0,30.0,2.0
9.491288661956787,1917,1.0,30.0,2.0
9.503715515136719,2057,1.0,30.0,2.0
9.50571060180664,1478,1.0,30.0,2.0
9.522037029266357,574,1.0,30.0,2.0
9.53343391418457,727,1.0,30.0,2.0
9.540815114974976,0,1.0,30.0,2.0
9.553447723388672,592,1.0,30.0,2.0
9.557228326797485,0,1.0,30.0,2.0
9.574132442474365,370,1.0,30.0,2.0
9.583369493484497,0,1.0,30.0,2.0
9.589556694030762,12,1.0,30.0,2.0
9.603883266448975,14,1.0,30.0,2.0
9.604881286621094,598,1.0,30.0,2.0
9.623783826828003,959,1.0,30.0,2.0
9.633585691452026,0,1.0,30.0,2.0
9.644350290298462,225,1.0,30.0,2.0
9.65415906906128,912,1.0,30.0,2.0
9.6593337059021,1770,1.0,30.0,2.0
9.673543691635132,1178,1.0,30.0,2.0
9.684173822402954,1095,1.0,30.0,2.0
9.69213604927063,143,1.0,30.0,2.0
9.703865766525269,0,1.0,30.0,2.0
9.71400260925293,95,1.0,30.0,2.0
9.72030258178711,117,1.0,30.0,2.0
9.733189344406128,0,1.0,30.0,2.0
9.741479396820068,155,1.0,30.0,2.0
9.753726720809937,0,1.0,30.0,2.0
9.763500213623047,125,1.0,30.0,2.0
9.772454261779785,1051,1.0,30.0,2.0
9.783615827560425,97,1.0,30.0,2.0
9.789543867111206,2368,1.0,30.0,2.0
9.804244995117188,82,1.0,30.0,2.0
9.81432557106018,1241,1.0,30.0,2.0
9.822181463241577,54,1.0,30.0,2.0
9.833371639251709,1044,1.0,30.0,2.0
9.841246366500854,48,1.0,30.0,2.0
9.853890895843506,1264,1.0,30.0,2.0
9.85798716545105,34,1.0,30.0,2.0
9.872125148773193,1148,1.0,30.0,2.0
9.883670330047607,15,1.0,30.0,2.0
9.890206813812256,322,1.0,30.0,2.0
9.90363621711731,0,1.0,30.0,2.0
9.910838603973389,337,1.0,30.0,2.0
9.923678636550903,0,1.0,30.0,2.0
9.933496952056885,1050,1.0,30.0,2.0
9.941333770751953,0,1.0,30.0,2.0
9.95416259765625,287,1.0,30.0,2.0
9.958205699920654,0,1.0,30.0,2.0
9.973896265029907,338,1.0,30.0,2.0
9.983389377593994,0,1.0,30.0,2.0
9.99428391456604,330,1.0,30.0,2.0
10.003897905349731,1,1.0,30.0,2.0
10.005897521972656,2530,1.0,30.0,2.0
10.023213863372803,0,1.0,30.0,2.0
10.034170150756836,2613,1.0,30.0,2.0
10.041299104690552,0,1.0,30.0,2.0
10.053958415985107,266,1.0,30.0,2.0
10.057385206222534,0,1.0,30.0,2.0
10.072717189788818,939,1.0,30.0,2.0
10.084118127822876,240,1.0,30.0,2.0
10.092224597930908,324,1.0,30.0,2.0
10.10403037071228,0,1.0,30.0,2.0
10.111721992492676,320,1.0,30.0,2.0
10.123471975326538,0,1.0,30.0,2.0
10.133417844772339,316,1.0,30.0,2.0
10.139934778213501,0,1.0,30.0,2.0
10.154014348983765,313,1.0,30.0,2.0
10.15788984298706,0,1.0,30.0,2.0
10.173725843429565,275,1.0,30.0,2.0
10.183840036392212,0,1.0,30.0,2.0
10.191609382629395,195,1.0,30.0,2.0
10.203369855880737,0,1.0,30.0,2.0
10.205365180969238,317,1.0,30.0,2.0
10.223608493804932,0,1.0,30.0,2.0
10.23352575302124,219,1.0,30.0,2.0
10.240638732910156,0,1.0,30.0,2.0
10.25346040725708,290,1.0,30.0,2.0
10.257748126983643,0,1.0,30.0,2.0
10.271947145462036,1814,1.0,30.0,2.0
10.283313989639282,0,1.0,30.0,2.0
10.290646314620972,1243,1.0,30.0,2.0
10.303513050079346,0,1.0,30.0,2.0
10.313724756240845,689,1.0,30.0,2.0
10.32346248626709,0,1.0,30.0,2.0
10.334012746810913,894,1.0,30.0,2.0
10.341598749160767,0,1.0,30.0,2.0
10.353485107421875,755,1.0,30.0,2.0
10.355478525161743,0,1.0,30.0,2.0
10.372166633605957,1281,1.0,30.0,2.0
10.383198261260986,0,1.0,30.0,2.0
10.387932538986206,576,1.0,30.0,2.0
10.403492450714111,33,1.0,30.0,2.0
10.40715742111206,256,1.0,30.0,2.0
10.423694849014282,0,1.0,30.0,2.0
10.431658744812012,1239,1.0,30.0,2.0
10.44121766090393,0,1.0,30.0,2.0
10.453705072402954,704,1.0,30.0,2.0
10.463308811187744,97,1.0,30.0,2.0
10.473739624023438,1310,1.0,30.0,2.0
10.483312129974365,304,1.0,30.0,2.0
10.494169235229492,0,1.0,30.0,2.0
10.503302574157715,0,1.0,30.0,2.0
10.513530254364014,336,1.0,30.0,2.0
10.524439096450806,0,1.0,30.0,2.0
10.534008502960205,1328,1.0,30.0,2.0
10.542052507400513,570,1.0,30.0,2.0
10.553376913070679,1277,1.0,30.0,2.0
10.557709455490112,1263,1.0,30.0,2.0
10.571887731552124,753,1.0,30.0,2.0
10.584134817123413,186,1.0,30.0,2.0
10.588089227676392,1294,1.0,30.0,2.0
10.604031801223755,899,1.0,30.0,2.0
10.60801076889038,1172,1.0,30.0,2.0
10.624319076538086,1532,1.0,30.0,2.0
10.63334345817566,1171,1.0,30.0,2.0
10.641189336776733,1202,1.0,30.0,2.0
10.653716325759888,885,1.0,30.0,2.0
10.657568216323853,1456,1.0,30.0,2.0
10.671411275863647,1274,1.0,30.0,2.0
10.683255672454834,1216,1.0,30.0,2.0
10.688248872756958,1004,1.0,30.0,2.0
10.704082727432251,1435,1.0,30.0,2.0
10.707813501358032,1094,1.0,30.0,2.0
10.724180221557617,1478,1.0,30.0,2.0
10.7340567111969,1062,1.0,30.0,2.0
10.743987083435059,387,1.0,30.0,2.0
10.753756999969482,1007,1.0,30.0,2.0
10.758776903152466,158,1.0,30.0,2.0
10.774145126342773,2004,1.0,30.0,2.0
10.784372806549072,1475,1.0,30.0,2.0
10.793474435806274,1673,1.0,30.0,2.0
10.803992986679077,464,1.0,30.0,2.0
10.811887502670288,566,1.0,30.0,2.0
10.820566892623901,926,1.0,30.0,2.0
10.833350658416748,1349,1.0,30.0,2.0
10.841469764709473,219,1.0,30.0,2.0
10.853703260421753,1198,1.0,30.0,2.0
10.863071203231812,262,1.0,30.0,2.0
10.871769666671753,1397,1.0,30.0,2.0
10.883524656295776,302,1.0,30.0,2.0
10.893740177154541,1296,1.0,30.0,2.0
10.900777101516724,378,1.0,30.0,2.0
10.9088134765625,1286,1.0,30.0,2.0
10.917580604553223,351,1.0,30.0,2.0
10.93322467803955,1552,1.0,30.0,2.0
10.94365119934082,1963,1.0,30.0,2.0
10.954283714294434,1342,1.0,30.0,2.0
10.957720756530762,1943,1.0,30.0,2.0
10.972078561782837,1322,1.0,30.0,2.0
10.983900547027588,1602,1.0,30.0,2.0
10.987468481063843,1198,1.0,30.0,2.0
11.003952503204346,1140,1.0,30.0,2.0
11.004932165145874,1344,1.0,30.0,2.0
11.02331256866455,1060,1.0,30.0,2.0
11.031314849853516,1680,1.0,30.0,2.0
11.038992404937744,973,1.0,30.0,2.0
11.054152488708496,1469,1.0,30.0,2.0
11.062157154083252,1014,1.0,30.0,2.0
11.068727731704712,2667,1.0,30.0,2.0
11.084245681762695,887,1.0,30.0,2.0
11.09333610534668,3081,1.0,30.0,2.0
11.099854469299316,896,1.0,30.0,2.0
11.109894037246704,233,1.0,30.0,2.0
11.124640941619873,1802,1.0,30.0,2.0
11.133799076080322,61,1.0,30.0,2.0
11.143750429153442,1405,1.0,30.0,2.0
11.154006242752075,1392,1.0,30.0,2.0
11.164299964904785,693,1.0,30.0,2.0
11.174028396606445,2641,1.0,30.0,2.0
11.184120416641235,1427,1.0,30.0,2.0
11.193859100341797,0,1.0,30.0,2.0
11.20355772972107,331,1.0,30.0,2.0
11.20845913887024,265,1.0,30.0,2.0
11.22377347946167,258,1.0,30.0,2.0
11.23350715637207,1552,1.0,30.0,2.0
11.241652965545654,114,1.0,30.0,2.0
11.25389552116394,1366,1.0,30.0,2.0
11.262874841690063,112,1.0,30.0,2.0
11.270283699035645,518,1.0,30.0,2.0
11.283705234527588,143,1.0,30.0,2.0
11.29273796081543,587,1.0,30.0,2.0
11.29895305633545,154,1.0,30.0,2.0
11.308656930923462,319,1.0,30.0,2.0
11.316843509674072,160,1.0,30.0,2.0
11.333139181137085,128,1.0,30.0,2.0
11.341156244277954,188,1.0,30.0,2.0
11.349818229675293,0,1.0,30.0,2.0
11.361412286758423,865,1.0,30.0,2.0
11.37378978729248,0,1.0,30.0,2.0
11.383812665939331,2183,1.0,30.0,2.0
11.391956329345703,101,1.0,30.0,2.0
11.404169797897339,2149,1.0,30.0,2.0
11.407382488250732,0,1.0,30.0,2.0
11.42411732673645,2163,1.0,30.0,2.0
11.434226989746094,128,1.0,30.0,2.0
11.438619375228882,1552,1.0,30.0,2.0
11.453423261642456,0,1.0,30.0,2.0
11.464788675308228,1683,1.0,30.0,2.0
11.467906951904297,0,1.0,30.0,2.0
11.4843270778656,495,1.0,30.0,2.0
11.493408679962158,435,1.0,30.0,2.0
11.499737739562988,1361,1.0,30.0,2.0
11.509726524353027,1200,1.0,30.0,2.0
11.523998498916626,1819,1.0,30.0,2.0
11.53352665901184,1549,1.0,30.0,2.0
11.540110349655151,1297,1.0,30.0,2.0
11.553632736206055,1190,1.0,30.0,2.0
11.56232762336731,527,1.0,30.0,2.0
11.56976866722107,0,1.0,30.0,2.0
11.583523511886597,1341,1.0,30.0,2.0
11.59388780593872,0,1.0,30.0,2.0
11.600378274917603,1315,1.0,30.0,2.0
11.608393907546997,0,1.0,30.0,2.0
11.623801946640015,1299,1.0,30.0,2.0
11.632814168930054,48,1.0,30.0,2.0
11.641128301620483,1335,1.0,30.0,2.0
11.649707794189453,76,1.0,30.0,2.0
11.657723665237427,1251,1.0,30.0,2.0
11.668393850326538,1789,1.0,30.0,2.0
11.682121276855469,1418,1.0,30.0,2.0
11.690974235534668,2288,1.0,30.0,2.0
11.704204082489014,832,1.0,30.0,2.0
11.712229013442993,1523,1.0,30.0,2.0
11.724147319793701,1200,1.0,30.0,2.0
11.734238386154175,801,1.0,30.0,2.0
11.742244958877563,1587,1.0,30.0,2.0
11.749541282653809,832,1.0,30.0,2.0
11.760523319244385,2096,1.0,30.0,2.0
11.767351865768433,699,1.0,30.0,2.0
11.783981323242188,2000,1.0,30.0,2.0
11.794025182723999,619,1.0,30.0,2.0
11.803979873657227,1951,1.0,30.0,2.0
11.813981533050537,461,1.0,30.0,2.0
11.816261291503906,1617,1.0,30.0,2.0
11.833864450454712,210,1.0,30.0,2.0
11.844162225723267,1562,1.0,30.0,2.0
11.852679014205933,0,1.0,30.0,2.0
11.860717058181763,1360,1.0,30.0,2.0
11.868083477020264,0,1.0,30.0,2.0
11.88286542892456,1392,1.0,30.0,2.0
11.890870809555054,0,1.0,30.0,2.0
11.899689197540283,1508,1.0,30.0,2.0
11.907734394073486,0,1.0,30.0,2.0
11.92353343963623,1584,1.0,30.0,2.0
11.933935403823853,0,1.0,30.0,2.0
11.941957473754883,1430,1.0,30.0,2.0
11.952451467514038,0,1.0,30.0,2.0
11.960460662841797,1287,1.0,30.0,2.0
11.968112707138062,0,1.0,30.0,2.0
11.982413530349731,1296,1.0,30.0,2.0
11.993108987808228,0,1.0,30.0,2.0
12.00007176399231,1249,1.0,30.0,2.0
12.013370037078857,1187,1.0,30.0,2.0
12.02342700958252,1334,1.0,30.0,2.0
12.033371925354004,736,1.0,30.0,2.0
12.04375672340393,1456,1.0,30.0,2.0
12.049081325531006,0,1.0,30.0,2.0
12.060177564620972,1235,1.0,30.0,2.0
12.067871809005737,0,1.0,30.0,2.0
12.083960771560669,1157,1.0,30.0,2.0
12.093973159790039,0,1.0,30.0,2.0
12.099052429199219,1521,1.0,30.0,2.0
12.109982252120972,0,1.0,30.0,2.0
12.1167151927948,1174,1.0,30.0,2.0
12.133380889892578,0,1.0,30.0,2.0
12.143394231796265,1562,1.0,30.0,2.0
12.152066946029663,0,1.0,30.0,2.0
12.16208291053772,1354,1.0,30.0,2.0
12.167750120162964,0,1.0,30.0,2.0
12.183369636535645,1477,1.0,30.0,2.0
12.193452596664429,0,1.0,30.0,2.0
12.199039459228516,1446,1.0,30.0,2.0
12.210012435913086,0,1.0,30.0,2.0
12.216719388961792,1172,1.0,30.0,2.0
12.231898784637451,0,1.0,30.0,2.0
12.243317365646362,1275,1.0,30.0,2.0
12.249550580978394,0,1.0,30.0,2.0
12.258510112762451,1671,1.0,30.0,2.0
12.2737398147583,0,1.0,30.0,2.0
12.282265901565552,1863,1.0,30.0,2.0
12.293076753616333,0,1.0,30.0,2.0
12.300040006637573,1926,1.0,30.0,2.0
12.310066223144531,0,1.0,30.0,2.0
12.316717147827148,2183,1.0,30.0,2.0
12.333356380462646,0,1.0,30.0,2.0
12.34308409690857,2255,1.0,30.0,2.0
12.350034475326538,0,1.0,30.0,2.0
12.360066175460815,2281,1.0,30.0,2.0
12.36670446395874,234,1.0,30.0,2.0
12.383332014083862,2210,1.0,30.0,2.0
12.393365144729614,1151,1.0,30.0,2.0
12.400015592575073,2195,1.0,30.0,2.0
12.41003131866455,1182,1.0,30.0,2.0
12.416707754135132,2195,1.0,30.0,2.0
12.433281898498535,1209,1.0,30.0,2.0
12.444121837615967,1967,1.0,30.0,2.0
12.45399785041809,960,1.0,30.0,2.0
12.460751295089722,1621,1.0,30.0,2.0
12.46597146987915,1039,1.0,30.0,2.0
12.48227071762085,1327,1.0,30.0,2.0
12.49122667312622,1143,1.0,30.0,2.0
12.498982906341553,1491,1.0,30.0,2.0
12.513938426971436,1333,1.0,30.0,2.0
12.516666173934937,1601,1.0,30.0,2.0
12.533290147781372,1264,1.0,30.0,2.0
12.54332447052002,1402,1.0,30.0,2.0
12.549954414367676,918,1.0,30.0,2.0
12.563762664794922,607,1.0,30.0,2.0
12.567726850509644,656,1.0,30.0,2.0
12.583311796188354,1371,1.0,30.0,2.0
12.593344926834106,1985,1.0,30.0,2.0
12.599966049194336,1366,1.0,30.0,2.0
12.609982967376709,1298,1.0,30.0,2.0
12.616637706756592,1081,1.0,30.0,2.0
12.633963584899902,541,1.0,30.0,2.0
12.643972158432007,1420,1.0,30.0,2.0
12.651054382324219,1103,1.0,30.0,2.0
12.663241147994995,2289,1.0,30.0,2.0
12.67380428314209,355,1.0,30.0,2.0
12.683770656585693,1583,1.0,30.0,2.0
12.692779779434204,1680,1.0,30.0,2.0
12.703517198562622,1685,1.0,30.0,2.0
12.713643074035645,1223,1.0,30.0,2.0
12.715454816818237,1165,1.0,30.0,2.0
12.73341989517212,1300,1.0,30.0,2.0
12.743699789047241,0,1.0,30.0,2.0
12.749986410140991,266,1.0,30.0,2.0
12.761120319366455,747,1.0,30.0,2.0
12.766698122024536,1793,1.0,30.0,2.0
12.78323245048523,2210,1.0,30.0,2.0
12.794018983840942,1712,1.0,30.0,2.0
12.799922943115234,2419,1.0,30.0,2.0
12.809961795806885,1187,1.0,30.0,2.0
12.816610336303711,0,1.0,30.0,2.0
12.833204984664917,1367,1.0,30.0,2.0
12.843295097351074,0,1.0,30.0,2.0
12.84989881515503,1161,1.0,30.0,2.0
12.863213300704956,0,1.0,30.0,2.0
12.87345027923584,1200,1.0,30.0,2.0
12.883585691452026,0,1.0,30.0,2.0
12.891730308532715,1247,1.0,30.0,2.0
12.899837732315063,0,1.0,30.0,2.0
12.907842874526978,1104,1.0,30.0,2.0
12.916483640670776,0,1.0,30.0,2.0
12.9339599609375,1125,1.0,30.0,2.0
12.94397497177124,0,1.0,30.0,2.0
12.949901819229126,1124,1.0,30.0,2.0
12.961615800857544,977,1.0,30.0,2.0
12.966574907302856,1093,1.0,30.0,2.0
12.983238697052002,5,1.0,30.0,2.0
12.993252754211426,1215,1.0,30.0,2.0
12.999881744384766,1101,1.0,30.0,2.0
13.009908437728882,1133,1.0,30.0,2.0
13.016561269760132,1607,1.0,30.0,2.0
13.033229112625122,939,1.0,30.0,2.0
13.043245077133179,1680,1.0,30.0,2.0
13.053996801376343,521,1.0,30.0,2.0
13.063536882400513,2442,1.0,30.0,2.0
13.06655216217041,979,1.0,30.0,2.0
13.082470893859863,2593,1.0,30.0,2.0
13.093244075775146,1104,1.0,30.0,2.0
13.099209547042847,1882,1.0,30.0,2.0
13.107221126556396,1498,1.0,30.0,2.0
13.117462635040283,1147,1.0,30.0,2.0
13.132123708724976,1200,1.0,30.0,2.0
13.14306354522705,1405,1.0,30.0,2.0
13.149855375289917,595,1.0,30.0,2.0
13.159903287887573,880,1.0,30.0,2.0
13.166659355163574,220,1.0,30.0,2.0
13.18316912651062,307,1.0,30.0,2.0
13.193343162536621,240,1.0,30.0,2.0
13.199854373931885,64,1.0,30.0,2.0
13.214438199996948,256,1.0,30.0,2.0
13.21644377708435,1441,1.0,30.0,2.0
13.233172416687012,2077,1.0,30.0,2.0
13.243391990661621,2287,1.0,30.0,2.0
13.24982237815857,2227,1.0,30.0,2.0
13.259839296340942,2397,1.0,30.0,2.0
13.266536951065063,2105,1.0,30.0,2.0
13.283174991607666,2160,1.0,30.0,2.0
13.293243169784546,1830,1.0,30.0,2.0
13.303186416625977,2034,1.0,30.0,2.0
13.314411878585815,1328,1.0,30.0,2.0
13.316248893737793,1690,1.0,30.0,2.0
13.333714723587036,953,1.0,30.0,2.0
13.34177303314209,1719,1.0,30.0,2.0
13.348722696304321,1046,1.0,30.0,2.0
13.359553337097168,1563,1.0,30.0,2.0
13.366513013839722,1232,1.0,30.0,2.0
13.3831467628479,1363,1.0,30.0,2.0
13.393178701400757,1168,1.0,30.0,2.0
13.399803876876831,1298,1.0,30.0,2.0
13.409820079803467,1264,1.0,30.0,2.0
13.416507244110107,1126,1.0,30.0,2.0
13.433150053024292,453,1.0,30.0,2.0
13.443167924880981,0,1.0,30.0,2.0
13.449779987335205,0,1.0,30.0,2.0
13.459792613983154,0,1.0,30.0,2.0
13.466543912887573,306,1.0,30.0,2.0
13.483121395111084,0,1.0,30.0,2.0
13.493153810501099,94,1.0,30.0,2.0
13.499794006347656,1746,1.0,30.0,2.0
13.512208223342896,518,1.0,30.0,2.0
13.523242235183716,2111,1.0,30.0,2.0
13.53305983543396,1269,1.0,30.0,2.0
13.541072130203247,1773,1.0,30.0,2.0
13.548705816268921,1160,1.0,30.0,2.0
13.557656049728394,1435,1.0,30.0,2.0
13.565433979034424,651,1.0,30.0,2.0
13.583111047744751,1072,1.0,30.0,2.0
13.593862771987915,1184,1.0,30.0,2.0
13.600910663604736,1395,1.0,30.0,2.0
13.610915660858154,1086,1.0,30.0,2.0
13.616551160812378,1495,1.0,30.0,2.0
13.633097887039185,1146,1.0,30.0,2.0
13.644273519515991,1219,1.0,30.0,2.0
13.649773836135864,1306,1.0,30.0,2.0
13.659789323806763,372,1.0,30.0,2.0
13.666500329971313,934,1.0,30.0,2.0
13.683100938796997,152,1.0,30.0,2.0
13.69311809539795,1408,1.0,30.0,2.0
13.699759483337402,241,1.0,30.0,2.0
13.70977520942688,960,1.0,30.0,2.0
13.716553449630737,150,1.0,30.0,2.0
13.732707500457764,1562,1.0,30.0,2.0
13.743345975875854,117,1.0,30.0,2.0
13.749969244003296,1217,1.0,30.0,2.0
13.757993698120117,133,1.0,30.0,2.0
13.773933410644531,1287,1.0,30.0,2.0
13.782044649124146,130,1.0,30.0,2.0
13.792983055114746,1265,1.0,30.0,2.0
13.79964828491211,147,1.0,30.0,2.0
13.8096604347229,1287,1.0,30.0,2.0
13.816327333450317,112,1.0,30.0,2.0
13.83298110961914,1276,1.0,30.0,2.0
13.842994689941406,108,1.0,30.0,2.0
13.84864330291748,1229,1.0,30.0,2.0
13.86328125,80,1.0,30.0,2.0
13.871964931488037,1295,1.0,30.0,2.0
13.883963823318481,1936,1.0,30.0,2.0
13.893976211547852,1456,1.0,30.0,2.0
13.899731636047363,2226,1.0,30.0,2.0
13.909748792648315,1672,1.0,30.0,2.0
13.915319919586182,1915,1.0,30.0,2.0
13.933057308197021,1490,1.0,30.0,2.0
13.943847417831421,1556,1.0,30.0,2.0
13.953580141067505,1166,1.0,30.0,2.0
13.963369846343994,1184,1.0,30.0,2.0
13.9658362865448,1405,1.0,30.0,2.0
13.982710599899292,1392,1.0,30.0,2.0
13.991772174835205,1395,1.0,30.0,2.0
13.998604536056519,1168,1.0,30.0,2.0
14.014363527297974,1041,1.0,30.0,2.0
14.016358137130737,1009,1.0,30.0,2.0
14.033031940460205,762,1.0,30.0,2.0
14.043180227279663,727,1.0,30.0,2.0
14.04969596862793,753,1.0,30.0,2.0
14.06428337097168,671,1.0,30.0,2.0
14.066283941268921,692,1.0,30.0,2.0
14.08301305770874,656,1.0,30.0,2.0
14.093027114868164,610,1.0,30.0,2.0
14.099798679351807,491,1.0,30.0,2.0
14.113781929016113,431,1.0,30.0,2.0
14.11595869064331,432,1.0,30.0,2.0
14.132205247879028,371,1.0,30.0,2.0
14.140311479568481,367,1.0,30.0,2.0
14.14891529083252,369,1.0,30.0,2.0
14.16368842124939,346,1.0,30.0,2.0
14.173175573348999,416,1.0,30.0,2.0
14.182812452316284,327,1.0,30.0,2.0
14.190821409225464,2119,1.0,30.0,2.0
14.19900131225586,257,1.0,30.0,2.0
14.207015752792358,1230,1.0,30.0,2.0
14.2150559425354,217,1.0,30.0,2.0
14.226041316986084,1499,1.0,30.0,2.0
14.243963718414307,183,1.0,30.0,2.0
14.253975868225098,1323,1.0,30.0,2.0
14.264115810394287,162,1.0,30.0,2.0
14.265113115310669,1474,1.0,30.0,2.0
14.27512240409851,114,1.0,30.0,2.0
14.285123586654663,1744,1.0,30.0,2.0
14.295122623443604,742,1.0,30.0,2.0
14.30513882637024,1359,1.0,30.0,2.0
14.323975324630737,1365,1.0,30.0,2.0
14.333994388580322,1275,1.0,30.0,2.0
14.344003200531006,1337,1.0,30.0,2.0
14.353986263275146,1360,1.0,30.0,2.0
14.363987445831299,1503,1.0,30.0,2.0
14.374138355255127,1266,1.0,30.0,2.0
14.38361668586731,2090,1.0,30.0,2.0
14.391499519348145,1212,1.0,30.0,2.0
14.403959512710571,1424,1.0,30.0,2.0
14.414191246032715,1415,1.0,30.0,2.0
14.423606634140015,1616,1.0,30.0,2.0
14.432626247406006,1390,1.0,30.0,2.0
14.442634105682373,1651,1.0,30.0,2.0
14.45264482498169,1347,1.0,30.0,2.0
14.462637424468994,2254,1.0,30.0,2.0
14.472636938095093,1481,1.0,30.0,2.0
14.482637166976929,2117,1.0,30.0,2.0
14.493963241577148,1335,1.0,30.0,2.0
14.503983497619629,2301,1.0,30.0,2.0
14.513975858688354,1294,1.0,30.0,2.0
14.523977041244507,1838,1.0,30.0,2.0
14.533982276916504,1296,1.0,30.0,2.0
14.543975591659546,2288,1.0,30.0,2.0
14.553978204727173,1328,1.0,30.0,2.0
14.563976049423218,2316,1.0,30.0,2.0
14.573975563049316,1275,1.0,30.0,2.0
14.584490060806274,2175,1.0,30.0,2.0
14.594176292419434,1222,1.0,30.0,2.0
14.601679801940918,2077,1.0,30.0,2.0
14.614253044128418,1322,1.0,30.0,2.0
14.616897821426392,880,1.0,30.0,2.0
14.634113550186157,1176,1.0,30.0,2.0
14.635013818740845,570,1.0,30.0,2.0
14.645023822784424,1488,1.0,30.0,2.0
14.664277791976929,1263,1.0,30.0,2.0
14.665273666381836,322,1.0,30.0,2.0
14.675415515899658,1374,1.0,30.0,2.0
14.685419082641602,390,1.0,30.0,2.0
14.69541597366333,1594,1.0,30.0,2.0
14.705429792404175,909,1.0,30.0,2.0
14.715415954589844,1598,1.0,30.0,2.0
14.7254159450531,855,1.0,30.0,2.0
14.735415935516357,1362,1.0,30.0,2.0
14.745431661605835,784,1.0,30.0,2.0
14.75541615486145,1369,1.0,30.0,2.0
14.765415906906128,635,1.0,30.0,2.0
14.77663254737854,1265,1.0,30.0,2.0
14.790874481201172,592,1.0,30.0,2.0
14.803992509841919,1296,1.0,30.0,2.0
14.814332723617554,645,1.0,30.0,2.0
14.816863298416138,1482,1.0,30.0,2.0
14.832120656967163,723,1.0,30.0,2.0
14.840128660202026,1690,1.0,30.0,2.0
14.849171876907349,705,1.0,30.0,2.0
14.859173774719238,1649,1.0,30.0,2.0
14.874184131622314,656,1.0,30.0,2.0
14.884190559387207,1055,1.0,30.0,2.0
14.89419150352478,631,1.0,30.0,2.0
14.904191255569458,946,1.0,30.0,2.0
14.91419768333435,605,1.0,30.0,2.0
14.924197435379028,960,1.0,30.0,2.0
14.934191465377808,645,1.0,30.0,2.0
14.944190502166748,989,1.0,30.0,2.0
14.9541916847229,32,1.0,30.0,2.0
14.964191198348999,935,1.0,30.0,2.0
14.964191198348999,0,1.0,30.0,2.0
14.98418927192688,901,1.0,30.0,2.0
14.993563890457153,0,1.0,30.0,2.0
15.00221037864685,803,1.0,30.0,2.0
15.014158010482788,0,1.0,30.0,2.0
15.017377853393555,607,1.0,30.0,2.0
15.031797170639038,0,1.0,30.0,2.0
15.043541431427002,618,1.0,30.0,2.0
15.053727388381958,0,1.0,30.0,2.0
15.063727140426636,576,1.0,30.0,2.0
15.073721170425415,63,1.0,30.0,2.0
15.083727359771729,650,1.0,30.0,2.0
15.09387469291687,0,1.0,30.0,2.0
15.095866441726685,702,1.0,30.0,2.0
15.106100797653198,14,1.0,30.0,2.0
15.117014169692993,737,1.0,30.0,2.0
15.128331661224365,0,1.0,30.0,2.0
15.144037008285522,775,1.0,30.0,2.0
15.14455509185791,0,1.0,30.0,2.0
15.154557466506958,767,1.0,30.0,2.0
15.164557456970215,0,1.0,30.0,2.0
15.174556970596313,752,1.0,30.0,2.0
15.184557437896729,159,1.0,30.0,2.0
15.203253269195557,655,1.0,30.0,2.0
15.206313133239746,0,1.0,30.0,2.0
15.222499370574951,708,1.0,30.0,2.0
15.233933448791504,0,1.0,30.0,2.0
15.24196457862854,787,1.0,30.0,2.0
15.248794078826904,337,1.0,30.0,2.0
15.256808996200562,789,1.0,30.0,2.0
15.26483941078186,411,1.0,30.0,2.0
15.274839878082275,787,1.0,30.0,2.0
15.28484034538269,420,1.0,30.0,2.0
15.29483938217163,761,1.0,30.0,2.0
15.304840326309204,0,1.0,30.0,2.0
15.314841270446777,1649,1.0,30.0,2.0
15.324840307235718,0,1.0,30.0,2.0
15.33484148979187,762,1.0,30.0,2.0
15.344862937927246,4095,1.0,30.0,2.0
15.354840993881226,867,1.0,30.0,2.0
15.364841222763062,4095,1.0,30.0,2.0
15.374840259552002,843,1.0,30.0,2.0
15.384840250015259,2691,1.0,30.0,2.0
15.394841194152832,889,1.0,30.0,2.0
15.414184093475342,2693,1.0,30.0,2.0
15.424214363098145,862,1.0,30.0,2.0
15.434073686599731,2782,1.0,30.0,2.0
15.442110776901245,848,1.0,30.0,2.0
15.448768615722656,2390,1.0,30.0,2.0
15.456783294677734,813,1.0,30.0,2.0
15.464801788330078,1489,1.0,30.0,2.0
15.474822282791138,1015,1.0,30.0,2.0
15.484832525253296,1344,1.0,30.0,2.0
15.494802713394165,1943,1.0,30.0,2.0
15.504802942276001,784,1.0,30.0,2.0
15.51480221748352,2096,1.0,30.0,2.0
15.524802923202515,640,1.0,30.0,2.0
15.534802675247192,1904,1.0,30.0,2.0
15.544803380966187,758,1.0,30.0,2.0
15.554803133010864,2007,1.0,30.0,2.0
15.564802885055542,651,1.0,30.0,2.0
15.574825763702393,2047,1.0,30.0,2.0
15.584802865982056,689,1.0,30.0,2.0
15.594802856445312,464,1.0,30.0,2.0
15.604806900024414,0,1.0,30.0,2.0
15.614803791046143,527,1.0,30.0,2.0
15.63155746459961,0,1.0,30.0,2.0
15.643600702285767,634,1.0,30.0,2.0
15.65283489227295,0,1.0,30.0,2.0
15.664022445678711,439,1.0,30.0,2.0
15.673441648483276,0,1.0,30.0,2.0
15.68145227432251,631,1.0,30.0,2.0
15.692435026168823,0,1.0,30.0,2.0
15.70243525505066,667,1.0,30.0,2.0
15.71243405342102,0,1.0,30.0,2.0
15.722434043884277,721,1.0,30.0,2.0
15.732434511184692,80,1.0,30.0,2.0
15.742445945739746,784,1.0,30.0,2.0
15.752434015274048,214,1.0,30.0,2.0
15.763936042785645,896,1.0,30.0,2.0
15.77394437789917,370,1.0,30.0,2.0
15.784147262573242,1354,1.0,30.0,2.0
15.785145282745361,1886,1.0,30.0,2.0
15.795161008834839,41,1.0,30.0,2.0
15.805160760879517,1853,1.0,30.0,2.0
15.815160989761353,31,1.0,30.0,2.0
15.82516074180603,1961,1.0,30.0,2.0
15.843467235565186,2,1.0,30.0,2.0
15.848277807235718,2022,1.0,30.0,2.0
15.863978385925293,0,1.0,30.0,2.0
15.866538047790527,1532,1.0,30.0,2.0
15.8839590549469,1777,1.0,30.0,2.0
15.893967390060425,1382,1.0,30.0,2.0
15.903971433639526,1360,1.0,30.0,2.0
15.913932800292969,1505,1.0,30.0,2.0
15.914932489395142,1185,1.0,30.0,2.0
15.924944162368774,1552,1.0,30.0,2.0
15.934943914413452,1281,1.0,30.0,2.0
15.944943904876709,1831,1.0,30.0,2.0
15.954944133758545,1287,1.0,30.0,2.0
15.973962783813477,1968,1.0,30.0,2.0
15.983973979949951,1304,1.0,30.0,2.0
15.993982076644897,1904,1.0,30.0,2.0
16.003982067108154,1360,1.0,30.0,2.0
16.01397156715393,1883,1.0,30.0,2.0
16.023982763290405,1357,1.0,30.0,2.0
16.03397512435913,1977,1.0,30.0,2.0
16.0439932346344,1408,1.0,30.0,2.0
16.054078817367554,1380,1.0,30.0,2.0
16.063842058181763,0,1.0,30.0,2.0
16.067836046218872,1424,1.0,30.0,2.0
16.08277654647827,0,1.0,30.0,2.0
16.09081745147705,1623,1.0,30.0,2.0
16.098255395889282,195,1.0,30.0,2.0
16.113951206207275,1798,1.0,30.0,2.0
16.114946603775024,1241,1.0,30.0,2.0
16.125016689300537,1775,1.0,30.0,2.0
16.13617491722107,993,1.0,30.0,2.0
16.14618444442749,1498,1.0,30.0,2.0
16.16224479675293,753,1.0,30.0,2.0
16.172250509262085,1550,1.0,30.0,2.0
16.18225336074829,526,1.0,30.0,2.0
16.194169521331787,205,1.0,30.0,2.0
16.204175233840942,940,1.0,30.0,2.0
16.2141752243042,176,1.0,30.0,2.0
16.224175453186035,991,1.0,30.0,2.0
16.234183073043823,402,1.0,30.0,2.0
16.244184970855713,957,1.0,30.0,2.0
16.254181623458862,562,1.0,30.0,2.0
16.264298915863037,1062,1.0,30.0,2.0
16.27325415611267,429,1.0,30.0,2.0
16.28355312347412,813,1.0,30.0,2.0
16.29156994819641,324,1.0,30.0,2.0
16.29820203781128,695,1.0,30.0,2.0
16.31419849395752,208,1.0,30.0,2.0
16.31519627571106,624,1.0,30.0,2.0
16.32520842552185,0,1.0,30.0,2.0
16.33520817756653,645,1.0,30.0,2.0
16.345207691192627,116,1.0,30.0,2.0
16.355207443237305,1899,1.0,30.0,2.0
16.36520791053772,69,1.0,30.0,2.0
16.37520718574524,1941,1.0,30.0,2.0
16.385207891464233,5,1.0,30.0,2.0
16.39520812034607,2032,1.0,30.0,2.0
16.405207872390747,0,1.0,30.0,2.0
16.415207862854004,1904,1.0,30.0,2.0
16.42520761489868,0,1.0,30.0,2.0
16.43520760536194,2025,1.0,30.0,2.0
16.445207118988037,0,1.0,30.0,2.0
16.455207347869873,2009,1.0,30.0,2.0
16.46520709991455,0,1.0,30.0,2.0
16.481884956359863,1995,1.0,30.0,2.0
16.491891622543335,273,1.0,30.0,2.0
16.49876880645752,2007,1.0,30.0,2.0
16.51410698890686,786,1.0,30.0,2.0
16.522109031677246,2139,1.0,30.0,2.0
16.531440496444702,1298,1.0,30.0,2.0
16.541476726531982,1776,1.0,30.0,2.0
16.55147647857666,1585,1.0,30.0,2.0
16.563805103302002,1989,1.0,30.0,2.0
16.564812421798706,1514,1.0,30.0,2.0
16.57482147216797,1654,1.0,30.0,2.0
16.584822177886963,1791,1.0,30.0,2.0
16.59482169151306,2064,1.0,30.0,2.0
16.60482144355774,1786,1.0,30.0,2.0
16.614821672439575,1730,1.0,30.0,2.0
16.62482213973999,1767,1.0,30.0,2.0
16.634822130203247,1899,1.0,30.0,2.0
16.645970582962036,1936,1.0,30.0,2.0
16.6560115814209,1858,1.0,30.0,2.0
16.67239809036255,1201,1.0,30.0,2.0
16.68381643295288,2042,1.0,30.0,2.0
16.69369077682495,1605,1.0,30.0,2.0
16.698086261749268,1776,1.0,30.0,2.0
16.71426796913147,1965,1.0,30.0,2.0
16.723389625549316,1655,1.0,30.0,2.0
16.732543230056763,2039,1.0,30.0,2.0
16.742549896240234,1648,1.0,30.0,2.0
16.75418734550476,2064,1.0,30.0,2.0
16.763869524002075,1663,1.0,30.0,2.0
16.76486611366272,1965,1.0,30.0,2.0
16.774873733520508,1600,1.0,30.0,2.0
16.784871816635132,2041,1.0,30.0,2.0
16.79711103439331,1642,1.0,30.0,2.0
16.807152032852173,2059,1.0,30.0,2.0
16.81715202331543,1311,1.0,30.0,2.0
16.827152252197266,563,1.0,30.0,2.0
16.837151765823364,840,1.0,30.0,2.0
16.847152709960938,307,1.0,30.0,2.0
16.857152700424194,727,1.0,30.0,2.0
16.87396502494812,250,1.0,30.0,2.0
16.88398051261902,710,1.0,30.0,2.0
16.8940486907959,240,1.0,30.0,2.0
16.904099464416504,1965,1.0,30.0,2.0
16.913864374160767,1461,1.0,30.0,2.0
16.917027473449707,1917,1.0,30.0,2.0
16.93140959739685,1698,1.0,30.0,2.0
16.944162130355835,1798,1.0,30.0,2.0
16.948033094406128,2010,1.0,30.0,2.0
16.96389675140381,1631,1.0,30.0,2.0
16.96489453315735,1996,1.0,30.0,2.0
16.974903345108032,1674,1.0,30.0,2.0
16.984903573989868,1744,1.0,30.0,2.0
16.994903564453125,1263,1.0,30.0,2.0
17.004903554916382,1594,1.0,30.0,2.0
17.01490330696106,1650,1.0,30.0,2.0
17.024903535842896,1565,1.0,30.0,2.0
17.03490447998047,1513,1.0,30.0,2.0
17.04490852355957,2094,1.0,30.0,2.0
17.054903745651245,1335,1.0,30.0,2.0
17.06490445137024,2305,1.0,30.0,2.0
17.074903964996338,1424,1.0,30.0,2.0
17.084903478622437,1471,1.0,30.0,2.0
17.09490442276001,1397,1.0,30.0,2.0
17.114250898361206,1363,1.0,30.0,2.0
17.117241621017456,1407,1.0,30.0,2.0
17.13183045387268,1328,1.0,30.0,2.0
17.14079999923706,1360,1.0,30.0,2.0
17.148062705993652,1264,1.0,30.0,2.0
17.163889169692993,1344,1.0,30.0,2.0
17.164886951446533,1195,1.0,30.0,2.0
17.180795431137085,1312,1.0,30.0,2.0
17.19079899787903,1237,1.0,30.0,2.0
17.20080065727234,1355,1.0,30.0,2.0
17.21079921722412,1163,1.0,30.0,2.0
17.220799207687378,1344,1.0,30.0,2.0
17.230799674987793,1174,1.0,30.0,2.0
17.240798950195312,1237,1.0,30.0,2.0
17.253963708877563,1054,1.0,30.0,2.0
17.263975858688354,1264,1.0,30.0,2.0
17.27397608757019,1122,1.0,30.0,2.0
17.283976078033447,1259,1.0,30.0,2.0
17.293975114822388,1202,1.0,30.0,2.0
17.30397605895996,1289,1.0,30.0,2.0
17.313982009887695,1198,1.0,30.0,2.0
17.32409906387329,1296,1.0,30.0,2.0
17.33407211303711,1922,1.0,30.0,2.0
17.338225603103638,1328,1.0,30.0,2.0
17.350562810897827,2041,1.0,30.0,2.0
17.363689184188843,1447,1.0,30.0,2.0
17.37354803085327,1577,1.0,30.0,2.0
17.382612228393555,1323,1.0,30.0,2.0
17.392608642578125,2256,1.0,30.0,2.0
17.402611017227173,1265,1.0,30.0,2.0
17.413856267929077,2222,1.0,30.0,2.0
17.414881467819214,1459,1.0,30.0,2.0
17.424888134002686,2213,1.0,30.0,2.0
17.43488836288452,1306,1.0,30.0,2.0
17.4448881149292,2159,1.0,30.0,2.0
17.454888582229614,1454,1.0,30.0,2.0
17.466384172439575,1932,1.0,30.0,2.0
17.477562189102173,1281,1.0,30.0,2.0
17.48757553100586,1353,1.0,30.0,2.0
17.498734951019287,1326,1.0,30.0,2.0
17.51396155357361,1305,1.0,30.0,2.0
17.52398180961609,1406,1.0,30.0,2.0
17.534093856811523,1425,1.0,30.0,2.0
17.543684005737305,1443,1.0,30.0,2.0
17.549242973327637,1366,1.0,30.0,2.0
17.563659191131592,1385,1.0,30.0,2.0
17.57374596595764,1360,1.0,30.0,2.0
17.581346035003662,1423,1.0,30.0,2.0
17.594170093536377,1750,1.0,30.0,2.0
17.604177474975586,1350,1.0,30.0,2.0
17.61417818069458,1550,1.0,30.0,2.0
17.624177932739258,1233,1.0,30.0,2.0
17.634178400039673,1245,1.0,30.0,2.0
17.635589599609375,935,1.0,30.0,2.0
17.64560103416443,936,1.0,30.0,2.0
17.655598163604736,707,1.0,30.0,2.0
17.66559886932373,698,1.0,30.0,2.0
17.675598859786987,1456,1.0,30.0,2.0
17.691428422927856,1424,1.0,30.0,2.0
17.703307151794434,1317,1.0,30.0,2.0
17.70430588722229,2009,1.0,30.0,2.0
17.71431612968445,1487,1.0,30.0,2.0
17.72433376312256,1325,1.0,30.0,2.0
17.734349250793457,1808,1.0,30.0,2.0
17.74732780456543,1802,1.0,30.0,2.0
17.764061450958252,1535,1.0,30.0,2.0
17.773993730545044,1472,1.0,30.0,2.0
17.783658504486084,1332,1.0,30.0,2.0
17.787644386291504,1531,1.0,30.0,2.0
17.798218250274658,1334,1.0,30.0,2.0
17.8138210773468,1648,1.0,30.0,2.0
17.82285714149475,1261,1.0,30.0,2.0
17.834150791168213,1544,1.0,30.0,2.0
17.835471630096436,1307,1.0,30.0,2.0
17.84884476661682,1589,1.0,30.0,2.0
17.863330841064453,1254,1.0,30.0,2.0
17.86573052406311,1565,1.0,30.0,2.0
17.883101224899292,1319,1.0,30.0,2.0
17.893152952194214,1503,1.0,30.0,2.0
17.904150009155273,1287,1.0,30.0,2.0
17.91415786743164,1397,1.0,30.0,2.0
17.92415761947632,1383,1.0,30.0,2.0
17.933159828186035,1421,1.0,30.0,2.0
17.944324016571045,1253,1.0,30.0,2.0
17.94532036781311,1302,1.0,30.0,2.0
17.964336156845093,1294,1.0,30.0,2.0
17.97259211540222,1253,1.0,30.0,2.0
17.984273433685303,1186,1.0,30.0,2.0
17.992278575897217,1258,1.0,30.0,2.0
17.99789834022522,1351,1.0,30.0,2.0
18.013996124267578,1214,1.0,30.0,2.0
18.024343967437744,1297,1.0,30.0,2.0
18.034350633621216,1231,1.0,30.0,2.0
18.044352293014526,1247,1.0,30.0,2.0
18.054351806640625,1200,1.0,30.0,2.0
18.064355850219727,1318,1.0,30.0,2.0
18.064355850219727,1865,1.0,30.0,2.0
18.074361085891724,1291,1.0,30.0,2.0
18.084360122680664,1347,1.0,30.0,2.0
18.103217124938965,1199,1.0,30.0,2.0
18.104227542877197,923,1.0,30.0,2.0
18.12423062324524,1174,1.0,30.0,2.0
18.13419532775879,939,1.0,30.0,2.0
18.144198417663574,1253,1.0,30.0,2.0
18.154212474822998,1593,1.0,30.0,2.0
18.16434121131897,1305,1.0,30.0,2.0
18.165338039398193,1922,1.0,30.0,2.0
18.183324337005615,1254,1.0,30.0,2.0
18.189016103744507,1932,1.0,30.0,2.0
18.197908878326416,1298,1.0,30.0,2.0
18.213810205459595,1301,1.0,30.0,2.0
18.22404956817627,1309,1.0,30.0,2.0
18.234188079833984,1102,1.0,30.0,2.0
18.244192123413086,1285,1.0,30.0,2.0
18.254226684570312,1003,1.0,30.0,2.0
18.264203786849976,1321,1.0,30.0,2.0
18.274213790893555,1099,1.0,30.0,2.0
18.28420352935791,1236,1.0,30.0,2.0
18.294208526611328,982,1.0,30.0,2.0
18.303214073181152,1355,1.0,30.0,2.0
18.31422710418701,1484,1.0,30.0,2.0
18.324204921722412,1211,1.0,30.0,2.0
18.33420753479004,1117,1.0,30.0,2.0
18.34419560432434,688,1.0,30.0,2.0
18.354216814041138,1073,1.0,30.0,2.0
18.364198684692383,1093,1.0,30.0,2.0
18.373210191726685,1910,1.0,30.0,2.0
18.384210348129272,2222,1.0,30.0,2.0
18.39320707321167,2154,1.0,30.0,2.0
18.4037344455719,1968,1.0,30.0,2.0
18.414074659347534,1892,1.0,30.0,2.0
18.423149824142456,1759,1.0,30.0,2.0
18.433140516281128,2132,1.0,30.0,2.0
18.444153785705566,1686,1.0,30.0,2.0
18.448131322860718,2075,1.0,30.0,2.0
18.463294982910156,1487,1.0,30.0,2.0
18.474360942840576,1838,1.0,30.0,2.0
18.484235048294067,1305,1.0,30.0,2.0
18.494333028793335,1725,1.0,30.0,2.0
18.503321409225464,1301,1.0,30.0,2.0
18.51433753967285,1525,1.0,30.0,2.0
18.523284196853638,1112,1.0,30.0,2.0
18.534350156784058,1328,1.0,30.0,2.0
18.54435896873474,1174,1.0,30.0,2.0
18.553354263305664,1253,1.0,30.0,2.0
18.564109802246094,1058,1.0,30.0,2.0
18.574179649353027,841,1.0,30.0,2.0
18.58320641517639,907,1.0,30.0,2.0
18.593196868896484,589,1.0,30.0,2.0
18.603203296661377,906,1.0,30.0,2.0
18.613640785217285,461,1.0,30.0,2.0
18.62419295310974,914,1.0,30.0,2.0
18.63322687149048,571,1.0,30.0,2.0
18.643211364746094,903,1.0,30.0,2.0
18.647766828536987,467,1.0,30.0,2.0
18.664196968078613,875,1.0,30.0,2.0
18.673215866088867,533,1.0,30.0,2.0
18.6842098236084,795,1.0,30.0,2.0
18.694191694259644,498,1.0,30.0,2.0
18.703225135803223,896,1.0,30.0,2.0
18.713806867599487,477,1.0,30.0,2.0
18.724228382110596,1177,1.0,30.0,2.0
18.73417639732361,526,1.0,30.0,2.0
18.744213819503784,1088,1.0,30.0,2.0
18.754191160202026,496,1.0,30.0,2.0
18.76321244239807,995,1.0,30.0,2.0
18.77321434020996,974,1.0,30.0,2.0
18.784175395965576,1348,1.0,30.0,2.0
18.793182373046875,1264,1.0,30.0,2.0
18.804194927215576,1311,1.0,30.0,2.0
18.813222885131836,1232,1.0,30.0,2.0
18.823235988616943,1294,1.0,30.0,2.0
18.834155321121216,1281,1.0,30.0,2.0
18.84339690208435,1360,1.0,30.0,2.0
18.848013639450073,999,1.0,30.0,2.0
18.863579034805298,1187,1.0,30.0,2.0
18.874207258224487,774,1.0,30.0,2.0
18.884181022644043,1342,1.0,30.0,2.0
18.894172191619873,880,1.0,30.0,2.0
18.904191255569458,1175,1.0,30.0,2.0
18.914177894592285,916,1.0,30.0,2.0
18.924193620681763,1351,1.0,30.0,2.0
18.93418049812317,1018,1.0,30.0,2.0
18.94318985939026,1369,1.0,30.0,2.0
18.953189611434937,965,1.0,30.0,2.0
18.964194536209106,1307,1.0,30.0,2.0
18.973187923431396,750,1.0,30.0,2.0
18.984187364578247,1355,1.0,30.0,2.0
18.994174480438232,782,1.0,30.0,2.0
19.00419521331787,1290,1.0,30.0,2.0
19.014162302017212,708,1.0,30.0,2.0
19.02318000793457,1338,1.0,30.0,2.0
19.033340454101562,620,1.0,30.0,2.0
19.039098501205444,943,1.0,30.0,2.0
19.05417537689209,592,1.0,30.0,2.0
19.06379270553589,843,1.0,30.0,2.0
19.07418704032898,577,1.0,30.0,2.0
19.08419966697693,866,1.0,30.0,2.0
19.093175888061523,611,1.0,30.0,2.0
19.097551584243774,906,1.0,30.0,2.0
19.11319613456726,546,1.0,30.0,2.0
19.123162031173706,914,1.0,30.0,2.0
19.134158849716187,595,1.0,30.0,2.0
19.143191814422607,910,1.0,30.0,2.0
19.154194355010986,560,1.0,30.0,2.0
19.164186239242554,1358,1.0,30.0,2.0
19.174196243286133,1422,1.0,30.0,2.0
19.184179067611694,1856,1.0,30.0,2.0
19.19418954849243,1294,1.0,30.0,2.0
19.204331636428833,1354,1.0,30.0,2.0
19.21420121192932,1115,1.0,30.0,2.0
19.224252462387085,1590,1.0,30.0,2.0
19.233211755752563,1054,1.0,30.0,2.0
19.24343490600586,1582,1.0,30.0,2.0
19.248994827270508,736,1.0,30.0,2.0
19.26362156867981,1318,1.0,30.0,2.0
19.273767232894897,768,1.0,30.0,2.0
19.28308367729187,1443,1.0,30.0,2.0
19.29310417175293,848,1.0,30.0,2.0
19.304364919662476,1318,1.0,30.0,2.0
19.31431746482849,658,1.0,30.0,2.0
19.32334303855896,1400,1.0,30.0,2.0
19.33428645133972,851,1.0,30.0,2.0
19.34322214126587,1296,1.0,30.0,2.0
19.354185819625854,816,1.0,30.0,2.0
19.36417865753174,1381,1.0,30.0,2.0
19.373192071914673,848,1.0,30.0,2.0
19.383150815963745,1303,1.0,30.0,2.0
19.394156455993652,783,1.0,30.0,2.0
19.404152631759644,1387,1.0,30.0,2.0
19.414180994033813,707,1.0,30.0,2.0
19.42417621612549,1173,1.0,30.0,2.0
19.4341938495636,688,1.0,30.0,2.0
19.444191217422485,1333,1.0,30.0,2.0
19.453164100646973,703,1.0,30.0,2.0
19.463499546051025,1424,1.0,30.0,2.0
19.473212242126465,659,1.0,30.0,2.0
19.483075618743896,1271,1.0,30.0,2.0
19.493172883987427,637,1.0,30.0,2.0
19.504190683364868,1360,1.0,30.0,2.0
19.51416563987732,1205,1.0,30.0,2.0
19.524158716201782,1408,1.0,30.0,2.0
19.53420066833496,1295,1.0,30.0,2.0
19.544151782989502,1431,1.0,30.0,2.0
19.554158449172974,1254,1.0,30.0,2.0
19.563159465789795,1354,1.0,30.0,2.0
19.57417631149292,1200,1.0,30.0,2.0
19.584156036376953,1247,1.0,30.0,2.0
19.593276977539062,1210,1.0,30.0,2.0
19.60366725921631,1309,1.0,30.0,2.0
19.61417317390442,1043,1.0,30.0,2.0
19.624175786972046,1407,1.0,30.0,2.0
19.634155750274658,709,1.0,30.0,2.0
19.6431884765625,1530,1.0,30.0,2.0
19.65416669845581,671,1.0,30.0,2.0
19.663183212280273,1515,1.0,30.0,2.0
19.6739399433136,499,1.0,30.0,2.0
19.684216499328613,1364,1.0,30.0,2.0
19.69315528869629,544,1.0,30.0,2.0
19.70319151878357,1409,1.0,30.0,2.0
19.71325945854187,631,1.0,30.0,2.0
19.72316336631775,1341,1.0,30.0,2.0
19.73380136489868,576,1.0,30.0,2.0
19.743276596069336,1421,1.0,30.0,2.0
19.753230333328247,709,1.0,30.0,2.0
19.76320219039917,1394,1.0,30.0,2.0
19.773236751556396,1446,1.0,30.0,2.0
19.78323793411255,1259,1.0,30.0,2.0
19.79320979118347,1019,1.0,30.0,2.0
19.80320143699646,1156,1.0,30.0,2.0
19.813232898712158,688,1.0,30.0,2.0
19.823203563690186,817,1.0,30.0,2.0
19.833242654800415,1088,1.0,30.0,2.0
19.84324312210083,1939,1.0,30.0,2.0
19.853244304656982,2013,1.0,30.0,2.0
19.863758325576782,2038,1.0,30.0,2.0
19.87342596054077,2373,1.0,30.0,2.0
19.88363027572632,1807,1.0,30.0,2.0
19.893643617630005,2361,1.0,30.0,2.0
19.904181718826294,1705,1.0,30.0,2.0
19.913212537765503,2194,1.0,30.0,2.0
19.920571327209473,1468,1.0,30.0,2.0
19.934325218200684,2023,1.0,30.0,2.0
19.943345546722412,1263,1.0,30.0,2.0
19.95432758331299,1701,1.0,30.0,2.0
19.964337587356567,1206,1.0,30.0,2.0
19.973320245742798,1872,1.0,30.0,2.0
19.98415493965149,1068,1.0,30.0,2.0
19.994152069091797,1987,1.0,30.0,2.0
20.003153085708618,950,1.0,30.0,2.0
20.014159202575684,1907,1.0,30.0,2.0
20.024157762527466,877,1.0,30.0,2.0
20.034151077270508,1600,1.0,30.0,2.0
20.044156312942505,848,1.0,30.0,2.0
20.053215980529785,1520,1.0,30.0,2.0
20.063203811645508,905,1.0,30.0,2.0
20.074198961257935,1495,1.0,30.0,2.0
20.08320164680481,943,1.0,30.0,2.0
20.09317445755005,1440,1.0,30.0,2.0
20.097463369369507,1313,1.0,30.0,2.0
20.113113403320312,1345,1.0,30.0,2.0
20.124122381210327,1406,1.0,30.0,2.0
20.13078737258911,1211,1.0,30.0,2.0
20.14079737663269,1238,1.0,30.0,2.0
20.15079689025879,1104,1.0,30.0,2.0
20.164306163787842,1323,1.0,30.0,2.0
20.173397064208984,1071,1.0,30.0,2.0
20.18337082862854,979,1.0,30.0,2.0
20.19431734085083,1110,1.0,30.0,2.0
20.203412771224976,1238,1.0,30.0,2.0
20.213332414627075,1152,1.0,30.0,2.0
20.224318027496338,1378,1.0,30.0,2.0
20.23341393470764,1093,1.0,30.0,2.0
20.243359565734863,1168,1.0,30.0,2.0
20.253209352493286,1137,1.0,30.0,2.0
20.263208866119385,1370,1.0,30.0,2.0
20.27320623397827,1167,1.0,30.0,2.0
20.283196449279785,1150,1.0,30.0,2.0
20.293193340301514,1233,1.0,30.0,2.0
20.30368161201477,1341,1.0,30.0,2.0
20.313983917236328,1298,1.0,30.0,2.0
20.319929599761963,1430,1.0,30.0,2.0
20.333189964294434,1366,1.0,30.0,2.0
20.343199968338013,1197,1.0,30.0,2.0
20.347763061523438,1425,1.0,30.0,2.0
20.364319801330566,1386,1.0,30.0,2.0
20.37435531616211,1341,1.0,30.0,2.0
20.383380889892578,1153,1.0,30.0,2.0
20.394336938858032,1801,1.0,30.0,2.0
20.40444254875183,1369,1.0,30.0,2.0
20.41339659690857,1998,1.0,30.0,2.0
20.423216819763184,1404,1.0,30.0,2.0
20.434314250946045,1825,1.0,30.0,2.0
20.44339418411255,1271,1.0,30.0,2.0
20.453318119049072,1618,1.0,30.0,2.0
20.46321201324463,1407,1.0,30.0,2.0
20.473170518875122,1589,1.0,30.0,2.0
20.48321795463562,1459,1.0,30.0,2.0
20.493196964263916,1375,1.0,30.0,2.0
20.503185749053955,784,1.0,30.0,2.0
20.513688564300537,1259,1.0,30.0,2.0
20.519222497940063,706,1.0,30.0,2.0
20.533198595046997,1200,1.0,30.0,2.0
20.543174266815186,654,1.0,30.0,2.0
20.54837918281555,1177,1.0,30.0,2.0
20.564157724380493,699,1.0,30.0,2.0
20.565099477767944,1254,1.0,30.0,2.0
20.583357572555542,710,1.0,30.0,2.0
20.593313217163086,1200,1.0,30.0,2.0
20.604324102401733,711,1.0,30.0,2.0
20.613357305526733,1061,1.0,30.0,2.0
20.624311208724976,834,1.0,30.0,2.0
20.63332223892212,925,1.0,30.0,2.0
20.64337396621704,1269,1.0,30.0,2.0
20.653355598449707,1360,1.0,30.0,2.0
20.663346767425537,1746,1.0,30.0,2.0
20.673217296600342,1370,1.0,30.0,2.0
20.683213472366333,1328,1.0,30.0,2.0
20.6941921710968,1694,1.0,30.0,2.0
20.703173875808716,1531,1.0,30.0,2.0
20.713216304779053,1712,1.0,30.0,2.0
20.7237491607666,1525,1.0,30.0,2.0
20.73166036605835,1264,1.0,30.0,2.0
20.743199825286865,1264,1.0,30.0,2.0
20.753219604492188,1502,1.0,30.0,2.0
20.76324224472046,1350,1.0,30.0,2.0
20.774214267730713,1210,1.0,30.0,2.0
20.783199071884155,1327,1.0,30.0,2.0
20.794175148010254,1280,1.0,30.0,2.0
20.803200244903564,1379,1.0,30.0,2.0
20.81319499015808,1670,1.0,30.0,2.0
20.823185920715332,626,1.0,30.0,2.0
20.83321213722229,2072,1.0,30.0,2.0
20.843196153640747,496,1.0,30.0,2.0
20.85320019721985,2358,1.0,30.0,2.0
20.863173961639404,493,1.0,30.0,2.0
20.873170852661133,2427,1.0,30.0,2.0
20.883188247680664,535,1.0,30.0,2.0
20.89321756362915,2438,1.0,30.0,2.0
20.90319848060608,480,1.0,30.0,2.0
20.913212537765503,2332,1.0,30.0,2.0
20.923174142837524,464,1.0,30.0,2.0
20.933175325393677,1946,1.0,30.0,2.0
20.93825674057007,1415,1.0,30.0,2.0
20.949844360351562,1579,1.0,30.0,2.0
20.96397852897644,1309,1.0,30.0,2.0
20.974207639694214,1543,1.0,30.0,2.0
20.984367609024048,1374,1.0,30.0,2.0
20.994330644607544,1422,1.0,30.0,2.0
21.00433850288391,1482,1.0,30.0,2.0
21.013378381729126,1393,1.0,30.0,2.0
21.023361444473267,1333,1.0,30.0,2.0
21.03320050239563,1381,1.0,30.0,2.0
21.0431809425354,1410,1.0,30.0,2.0
21.053194761276245,1363,1.0,30.0,2.0
21.06418490409851,1315,1.0,30.0,2.0
21.07416820526123,1264,1.0,30.0,2.0
21.083216905593872,1453,1.0,30.0,2.0
21.093194007873535,1093,1.0,30.0,2.0
21.10319948196411,1597,1.0,30.0,2.0
21.114171266555786,1073,1.0,30.0,2.0
21.123174905776978,1450,1.0,30.0,2.0
21.133217096328735,1121,1.0,30.0,2.0
21.14401412010193,1565,1.0,30.0,2.0
21.150599002838135,971,1.0,30.0,2.0
21.163862943649292,1748,1.0,30.0,2.0
21.17315101623535,944,1.0,30.0,2.0
21.18058443069458,1712,1.0,30.0,2.0
21.193222045898438,1003,1.0,30.0,2.0
21.203195095062256,1409,1.0,30.0,2.0
21.213952779769897,1152,1.0,30.0,2.0
21.224184036254883,1338,1.0,30.0,2.0
21.233217000961304,1118,1.0,30.0,2.0
21.23421597480774,1639,1.0,30.0,2.0
21.25419521331787,1367,1.0,30.0,2.0
21.264183044433594,1791,1.0,30.0,2.0
21.27377700805664,1007,1.0,30.0,2.0
21.283222198486328,1458,1.0,30.0,2.0
21.29320740699768,1275,1.0,30.0,2.0
21.30322027206421,1105,1.0,30.0,2.0
21.31322169303894,2217,1.0,30.0,2.0
21.323217391967773,1611,1.0,30.0,2.0
21.334170818328857,2289,1.0,30.0,2.0
21.34317398071289,1488,1.0,30.0,2.0
21.353020191192627,2192,1.0,30.0,2.0
21.363221645355225,1307,1.0,30.0,2.0
21.373339414596558,1979,1.0,30.0,2.0
21.380666732788086,1251,1.0,30.0,2.0
21.39416790008545,1907,1.0,30.0,2.0
21.40320611000061,1073,1.0,30.0,2.0
21.413919925689697,1658,1.0,30.0,2.0
21.42199993133545,998,1.0,30.0,2.0
21.43321657180786,1472,1.0,30.0,2.0
21.43421483039856,906,1.0,30.0,2.0
21.45417070388794,1397,1.0,30.0,2.0
21.45417070388794,784,1.0,30.0,2.0
21.47321629524231,1264,1.0,30.0,2.0
21.474214553833008,676,1.0,30.0,2.0
21.493215322494507,1249,1.0,30.0,2.0
21.494212865829468,559,1.0,30.0,2.0
21.513219833374023,1143,1.0,30.0,2.0
21.51421809196472,490,1.0,30.0,2.0
21.533215761184692,1137,1.0,30.0,2.0
21.53421378135681,448,1.0,30.0,2.0
21.544222831726074,960,1.0,30.0,2.0
21.563101768493652,431,1.0,30.0,2.0
21.57298731803894,848,1.0,30.0,2.0
21.58147931098938,419,1.0,30.0,2.0
21.589489459991455,817,1.0,30.0,2.0
21.597543954849243,467,1.0,30.0,2.0
21.612924575805664,773,1.0,30.0,2.0
21.623220443725586,1002,1.0,30.0,2.0
21.624218463897705,800,1.0,30.0,2.0
21.643218517303467,1295,1.0,30.0,2.0
21.644225120544434,670,1.0,30.0,2.0
21.6631920337677,1199,1.0,30.0,2.0
21.66646099090576,592,1.0,30.0,2.0
21.683193922042847,1380,1.0,30.0,2.0
21.684191703796387,545,1.0,30.0,2.0
21.7032208442688,1531,1.0,30.0,2.0
21.704223155975342,534,1.0,30.0,2.0
21.72321629524231,1263,1.0,30.0,2.0
21.724220514297485,499,1.0,30.0,2.0
21.74319076538086,1426,1.0,30.0,2.0
21.744189023971558,523,1.0,30.0,2.0
21.75420832633972,979,1.0,30.0,2.0
21.764207363128662,510,1.0,30.0,2.0
21.78376579284668,1370,1.0,30.0,2.0
21.79293417930603,545,1.0,30.0,2.0
21.79724383354187,1510,1.0,30.0,2.0
21.81284785270691,595,1.0,30.0,2.0
21.823383331298828,1354,1.0,30.0,2.0
21.832704782485962,656,1.0,30.0,2.0
21.84403085708618,1805,1.0,30.0,2.0
21.84502387046814,747,1.0,30.0,2.0
21.86321473121643,1547,1.0,30.0,2.0
21.86421275138855,784,1.0,30.0,2.0
21.884207010269165,1815,1.0,30.0,2.0
21.884207010269165,942,1.0,30.0,2.0
21.90338659286499,1170,1.0,30.0,2.0
21.90438723564148,839,1.0,30.0,2.0
21.92334794998169,1311,1.0,30.0,2.0
21.933380603790283,1263,1.0,30.0,2.0
21.943192720413208,1232,1.0,30.0,2.0
21.953191995620728,1264,1.0,30.0,2.0
21.96318745613098,1232,1.0,30.0,2.0
21.96418571472168,944,1.0,30.0,2.0
21.975679636001587,873,1.0,30.0,2.0
21.98568558692932,919,1.0,30.0,2.0
21.9982852935791,857,1.0,30.0,2.0
22.01272416114807,800,1.0,30.0,2.0
22.022533178329468,766,1.0,30.0,2.0
22.030450344085693,797,1.0,30.0,2.0
22.038460969924927,720,1.0,30.0,2.0
22.047278881072998,707,1.0,30.0,2.0
22.063087701797485,783,1.0,30.0,2.0
22.0730938911438,669,1.0,30.0,2.0
22.083093643188477,705,1.0,30.0,2.0
22.09309411048889,669,1.0,30.0,2.0
22.103352308273315,1305,1.0,30.0,2.0
22.113274335861206,1370,1.0,30.0,2.0
22.123223066329956,1968,1.0,30.0,2.0
22.13329005241394,1303,1.0,30.0,2.0
22.13429021835327,1660,1.0,30.0,2.0
22.154154777526855,1338,1.0,30.0,2.0
22.164154529571533,1165,1.0,30.0,2.0
22.173158884048462,1378,1.0,30.0,2.0
22.183211088180542,1182,1.0,30.0,2.0
22.194159507751465,1397,1.0,30.0,2.0
22.204155445098877,1288,1.0,30.0,2.0
22.204155445098877,714,1.0,30.0,2.0
22.21903109550476,1333,1.0,30.0,2.0
22.23008108139038,736,1.0,30.0,2.0
22.252216815948486,1191,1.0,30.0,2.0
22.252216815948486,593,1.0,30.0,2.0
22.263951063156128,1328,1.0,30.0,2.0
22.264947414398193,366,1.0,30.0,2.0
22.283225059509277,1681,1.0,30.0,2.0
22.284220933914185,505,1.0,30.0,2.0
22.303281784057617,1358,1.0,30.0,2.0
22.304279088974,391,1.0,30.0,2.0
22.32319664955139,1450,1.0,30.0,2.0
22.324193239212036,286,1.0,30.0,2.0
22.34329080581665,1182,1.0,30.0,2.0
22.344288110733032,121,1.0,30.0,2.0
22.3632869720459,1263,1.0,30.0,2.0
22.364283800125122,208,1.0,30.0,2.0
22.383284091949463,1551,1.0,30.0,2.0
22.384281635284424,241,1.0,30.0,2.0
22.40328025817871,1259,1.0,30.0,2.0
22.404276609420776,195,1.0,30.0,2.0
22.42415499687195,1426,1.0,30.0,2.0
22.432857990264893,148,1.0,30.0,2.0
22.441431999206543,835,1.0,30.0,2.0
22.4484384059906,44,1.0,30.0,2.0
22.46319007873535,625,1.0,30.0,2.0
22.4721999168396,0,1.0,30.0,2.0
22.48025894165039,58,1.0,30.0,2.0
22.49026083946228,0,1.0,30.0,2.0
22.500259160995483,57,1.0,30.0,2.0
22.51025891304016,0,1.0,30.0,2.0
22.520260334014893,59,1.0,30.0,2.0
22.530258655548096,0,1.0,30.0,2.0
22.540258646011353,33,1.0,30.0,2.0
22.550259351730347,0,1.0,30.0,2.0
22.560258626937866,85,1.0,30.0,2.0
22.57295870780945,880,1.0,30.0,2.0
22.582987546920776,0,1.0,30.0,2.0
22.592987298965454,742,1.0,30.0,2.0
22.603190422058105,1299,1.0,30.0,2.0
22.604188680648804,0,1.0,30.0,2.0
22.61571979522705,953,1.0,30.0,2.0
22.625738859176636,489,1.0,30.0,2.0
22.639238834381104,1603,1.0,30.0,2.0
22.652364015579224,386,1.0,30.0,2.0
22.66379427909851,1469,1.0,30.0,2.0
22.664557695388794,403,1.0,30.0,2.0
22.683207035064697,1643,1.0,30.0,2.0
22.692216634750366,384,1.0,30.0,2.0
22.703233003616333,1374,1.0,30.0,2.0
22.713234901428223,1403,1.0,30.0,2.0
22.723241329193115,2246,1.0,30.0,2.0
22.733234882354736,2054,1.0,30.0,2.0
22.743189811706543,2094,1.0,30.0,2.0
22.753193855285645,1873,1.0,30.0,2.0
22.763230085372925,1717,1.0,30.0,2.0
22.764228105545044,1808,1.0,30.0,2.0
22.783191919326782,1367,1.0,30.0,2.0
22.79323410987854,1303,1.0,30.0,2.0
22.803868770599365,1585,1.0,30.0,2.0
22.813193798065186,1481,1.0,30.0,2.0
22.823191165924072,1531,1.0,30.0,2.0
22.833192348480225,1377,1.0,30.0,2.0
22.843230485916138,1474,1.0,30.0,2.0
22.844228982925415,1261,1.0,30.0,2.0
22.863710403442383,1200,1.0,30.0,2.0
22.872061252593994,723,1.0,30.0,2.0
22.880822896957397,895,1.0,30.0,2.0
22.893217086791992,1161,1.0,30.0,2.0
22.89732313156128,730,1.0,30.0,2.0
22.9053373336792,406,1.0,30.0,2.0
22.91337752342224,640,1.0,30.0,2.0
22.924360990524292,398,1.0,30.0,2.0
22.934361934661865,613,1.0,30.0,2.0
22.94439673423767,279,1.0,30.0,2.0
22.960734128952026,464,1.0,30.0,2.0
22.96619153022766,190,1.0,30.0,2.0
22.97620463371277,397,1.0,30.0,2.0
22.98620367050171,432,1.0,30.0,2.0
22.996203899383545,1264,1.0,30.0,2.0
23.006204843521118,351,1.0,30.0,2.0
23.01620364189148,801,1.0,30.0,2.0
23.026203632354736,905,1.0,30.0,2.0
23.03620481491089,1271,1.0,30.0,2.0
23.04620862007141,528,1.0,30.0,2.0
23.063192129135132,1423,1.0,30.0,2.0
23.064189672470093,591,1.0,30.0,2.0
23.08216142654419,979,1.0,30.0,2.0
23.08668303489685,415,1.0,30.0,2.0
23.09993624687195,1360,1.0,30.0,2.0
23.112980365753174,456,1.0,30.0,2.0
23.121822834014893,1798,1.0,30.0,2.0
23.130838871002197,511,1.0,30.0,2.0
23.13887071609497,1232,1.0,30.0,2.0
23.148871898651123,473,1.0,30.0,2.0
23.15887212753296,859,1.0,30.0,2.0
23.168872356414795,379,1.0,30.0,2.0
23.180213689804077,1072,1.0,30.0,2.0
23.192918062210083,315,1.0,30.0,2.0
23.202921390533447,1607,1.0,30.0,2.0
23.212924242019653,384,1.0,30.0,2.0
23.22292137145996,1660,1.0,30.0,2.0
23.232921361923218,419,1.0,30.0,2.0
23.24415421485901,1426,1.0,30.0,2.0
23.2529354095459,368,1.0,30.0,2.0
23.262927770614624,1604,1.0,30.0,2.0
23.272933959960938,299,1.0,30.0,2.0
23.282931327819824,1237,1.0,30.0,2.0
23.293023109436035,320,1.0,30.0,2.0
23.302379608154297,1431,1.0,30.0,2.0
23.31273055076599,379,1.0,30.0,2.0
23.32081699371338,960,1.0,30.0,2.0
23.33112597465515,346,1.0,30.0,2.0
23.339135885238647,1323,1.0,30.0,2.0
23.347930669784546,398,1.0,30.0,2.0
23.357946634292603,1511,1.0,30.0,2.0
23.36794686317444,60,1.0,30.0,2.0
23.37794804573059,1248,1.0,30.0,2.0
23.387946844100952,256,1.0,30.0,2.0
23.397947311401367,1360,1.0,30.0,2.0
23.40794801712036,80,1.0,30.0,2.0
23.417946815490723,528,1.0,30.0,2.0
23.42794680595398,0,1.0,30.0,2.0
23.44216561317444,504,1.0,30.0,2.0
23.44416069984436,112,1.0,30.0,2.0
23.46223282814026,158,1.0,30.0,2.0
23.466259002685547,68,1.0,30.0,2.0
23.477177143096924,123,1.0,30.0,2.0
23.487186431884766,113,1.0,30.0,2.0
23.502972841262817,143,1.0,30.0,2.0
23.512502670288086,125,1.0,30.0,2.0
23.522520303726196,176,1.0,30.0,2.0
23.530174016952515,98,1.0,30.0,2.0
23.53818917274475,162,1.0,30.0,2.0
23.547969102859497,64,1.0,30.0,2.0
23.558106899261475,2623,1.0,30.0,2.0
23.568068742752075,1360,1.0,30.0,2.0
23.578068733215332,4095,1.0,30.0,2.0
23.58806848526001,1106,1.0,30.0,2.0
23.600159168243408,1559,1.0,30.0,2.0
23.611061573028564,820,1.0,30.0,2.0
23.62310290336609,4095,1.0,30.0,2.0
23.633115530014038,848,1.0,30.0,2.0
23.643108129501343,4095,1.0,30.0,2.0
23.644410610198975,863,1.0,30.0,2.0
23.654452800750732,4095,1.0,30.0,2.0
23.664453983306885,794,1.0,30.0,2.0
23.674453020095825,4095,1.0,30.0,2.0
23.684453010559082,679,1.0,30.0,2.0
23.694453954696655,4095,1.0,30.0,2.0
23.704453706741333,543,1.0,30.0,2.0
23.722395181655884,4095,1.0,30.0,2.0
23.730098962783813,467,1.0,30.0,2.0
23.73956799507141,4095,1.0,30.0,2.0
23.74679923057556,405,1.0,30.0,2.0
23.76254916191101,4095,1.0,30.0,2.0
23.763539791107178,246,1.0,30.0,2.0
23.774641275405884,4095,1.0,30.0,2.0
23.78464913368225,207,1.0,30.0,2.0
23.79464840888977,4095,1.0,30.0,2.0
23.804648637771606,417,1.0,30.0,2.0
23.814648628234863,4095,1.0,30.0,2.0
23.83075499534607,152,1.0,30.0,2.0
23.841886043548584,4095,1.0,30.0,2.0
23.851895332336426,454,1.0,30.0,2.0
23.861895084381104,3221,1.0,30.0,2.0
23.871894359588623,1056,1.0,30.0,2.0
23.881895065307617,2082,1.0,30.0,2.0
23.892936944961548,1100,1.0,30.0,2.0
23.902952432632446,1513,1.0,30.0,2.0
23.912957429885864,991,1.0,30.0,2.0
23.922950744628906,1853,1.0,30.0,2.0
23.93305230140686,1760,1.0,30.0,2.0
23.942758560180664,2018,1.0,30.0,2.0
23.947052001953125,1905,1.0,30.0,2.0
23.962502479553223,2031,1.0,30.0,2.0
23.967451095581055,1839,1.0,30.0,2.0
23.981106996536255,2090,1.0,30.0,2.0
23.991124153137207,1959,1.0,30.0,2.0
24.001123905181885,1783,1.0,30.0,2.0
24.01296091079712,1876,1.0,30.0,2.0
24.022972345352173,2190,1.0,30.0,2.0
24.03296947479248,1875,1.0,30.0,2.0
24.042972564697266,1920,1.0,30.0,2.0
24.05297303199768,1887,1.0,30.0,2.0
24.062973499298096,2014,1.0,30.0,2.0
24.072973251342773,1847,1.0,30.0,2.0
24.082985401153564,1966,1.0,30.0,2.0
24.092973232269287,1840,1.0,30.0,2.0
24.102972984313965,2003,1.0,30.0,2.0
24.112969636917114,1862,1.0,30.0,2.0
24.12297296524048,2209,1.0,30.0,2.0
24.132972955703735,1859,1.0,30.0,2.0
24.14311385154724,1958,1.0,30.0,2.0
24.152629852294922,1832,1.0,30.0,2.0
24.162665605545044,2243,1.0,30.0,2.0
24.172724723815918,1830,1.0,30.0,2.0
24.179269552230835,1562,1.0,30.0,2.0
24.187270641326904,916,1.0,30.0,2.0
24.197762966156006,773,1.0,30.0,2.0
24.212934255599976,679,1.0,30.0,2.0
24.22294282913208,592,1.0,30.0,2.0
24.23296809196472,727,1.0,30.0,2.0
24.242945671081543,2430,1.0,30.0,2.0
24.25294542312622,1891,1.0,30.0,2.0
24.263137102127075,2082,1.0,30.0,2.0
24.272961616516113,1881,1.0,30.0,2.0
24.282939910888672,2123,1.0,30.0,2.0
24.29300546646118,1830,1.0,30.0,2.0
24.294002771377563,1695,1.0,30.0,2.0
24.304014205932617,954,1.0,30.0,2.0
24.319698572158813,1846,1.0,30.0,2.0
24.329718112945557,956,1.0,30.0,2.0
24.34288477897644,1458,1.0,30.0,2.0
24.346155881881714,927,1.0,30.0,2.0
24.362567901611328,1296,1.0,30.0,2.0
24.36928391456604,721,1.0,30.0,2.0
24.382931232452393,1291,1.0,30.0,2.0
24.39094042778015,1853,1.0,30.0,2.0
24.39666199684143,1399,1.0,30.0,2.0
24.41243290901184,1142,1.0,30.0,2.0
24.41341781616211,1233,1.0,30.0,2.0
24.42342758178711,604,1.0,30.0,2.0
24.433427810668945,631,1.0,30.0,2.0
24.443427562713623,414,1.0,30.0,2.0
24.45449447631836,531,1.0,30.0,2.0
24.464515924453735,532,1.0,30.0,2.0
24.4745135307312,537,1.0,30.0,2.0
24.48452639579773,544,1.0,30.0,2.0
24.494513750076294,505,1.0,30.0,2.0
24.512959718704224,558,1.0,30.0,2.0
24.522673845291138,560,1.0,30.0,2.0
24.532679796218872,576,1.0,30.0,2.0
24.542903184890747,673,1.0,30.0,2.0
24.54389977455139,720,1.0,30.0,2.0
24.553905725479126,1157,1.0,30.0,2.0
24.572484493255615,754,1.0,30.0,2.0
24.58107018470764,1207,1.0,30.0,2.0
24.589082717895508,929,1.0,30.0,2.0
24.596633911132812,1225,1.0,30.0,2.0
24.612449169158936,793,1.0,30.0,2.0
24.613447666168213,687,1.0,30.0,2.0
24.623496294021606,455,1.0,30.0,2.0
24.6334969997406,876,1.0,30.0,2.0
24.6434965133667,475,1.0,30.0,2.0
24.653497219085693,820,1.0,30.0,2.0
24.663496255874634,447,1.0,30.0,2.0
24.67349672317505,706,1.0,30.0,2.0
24.683496713638306,422,1.0,30.0,2.0
24.693496227264404,649,1.0,30.0,2.0
24.70349669456482,439,1.0,30.0,2.0
24.713497161865234,691,1.0,30.0,2.0
24.723495960235596,448,1.0,30.0,2.0
24.733495712280273,620,1.0,30.0,2.0
24.752963304519653,705,1.0,30.0,2.0
24.762978076934814,1344,1.0,30.0,2.0
24.77306818962097,1199,1.0,30.0,2.0
24.782622814178467,1547,1.0,30.0,2.0
24.78690791130066,1199,1.0,30.0,2.0
24.798190593719482,1467,1.0,30.0,2.0
24.812564373016357,1681,1.0,30.0,2.0
24.821587800979614,1824,1.0,30.0,2.0
24.830623388290405,1707,1.0,30.0,2.0
24.84063172340393,1920,1.0,30.0,2.0
24.852351427078247,1821,1.0,30.0,2.0
24.85708212852478,2192,1.0,30.0,2.0
24.86708664894104,1776,1.0,30.0,2.0
24.877086400985718,1986,1.0,30.0,2.0
24.889798641204834,1777,1.0,30.0,2.0
24.899806261062622,1903,1.0,30.0,2.0
24.912960290908813,1232,1.0,30.0,2.0
24.922968864440918,706,1.0,30.0,2.0
24.93297266960144,671,1.0,30.0,2.0
24.94298028945923,789,1.0,30.0,2.0
24.952972650527954,525,1.0,30.0,2.0
24.962972402572632,506,1.0,30.0,2.0
24.972972631454468,523,1.0,30.0,2.0
24.983057498931885,2007,1.0,30.0,2.0
24.992700815200806,1856,1.0,30.0,2.0
24.99879217147827,3325,1.0,30.0,2.0
25.012522220611572,2245,1.0,30.0,2.0
25.02254605293274,356,1.0,30.0,2.0
25.0308575630188,2243,1.0,30.0,2.0
25.040867805480957,787,1.0,30.0,2.0
25.052960634231567,2086,1.0,30.0,2.0
25.062973022460938,1354,1.0,30.0,2.0
25.072978734970093,1949,1.0,30.0,2.0
25.082969427108765,1341,1.0,30.0,2.0
25.093161582946777,1408,1.0,30.0,2.0
25.094159364700317,925,1.0,30.0,2.0
25.1041738986969,689,1.0,30.0,2.0
25.11417293548584,1159,1.0,30.0,2.0
25.132747173309326,814,1.0,30.0,2.0
25.143101453781128,1218,1.0,30.0,2.0
25.151946306228638,832,1.0,30.0,2.0
25.162903785705566,443,1.0,30.0,2.0
25.17311978340149,833,1.0,30.0,2.0
25.182518243789673,807,1.0,30.0,2.0
25.19306778907776,818,1.0,30.0,2.0
25.202113151550293,636,1.0,30.0,2.0
25.21220064163208,627,1.0,30.0,2.0
25.220004081726074,901,1.0,30.0,2.0
25.233102083206177,1931,1.0,30.0,2.0
25.2340247631073,1263,1.0,30.0,2.0
25.250138998031616,2071,1.0,30.0,2.0
25.262221336364746,848,1.0,30.0,2.0
25.265633583068848,2193,1.0,30.0,2.0
25.28313136100769,1106,1.0,30.0,2.0
25.293200731277466,1781,1.0,30.0,2.0
25.300256490707397,1266,1.0,30.0,2.0
25.313074588775635,1861,1.0,30.0,2.0
25.32301950454712,771,1.0,30.0,2.0
25.32883858680725,2003,1.0,30.0,2.0
25.337823152542114,1242,1.0,30.0,2.0
25.347577333450317,2096,1.0,30.0,2.0
25.36111283302307,1426,1.0,30.0,2.0
25.364177227020264,2157,1.0,30.0,2.0
25.374181270599365,899,1.0,30.0,2.0
25.384181261062622,2201,1.0,30.0,2.0
25.40238046646118,1367,1.0,30.0,2.0
25.412473678588867,2058,1.0,30.0,2.0
25.422524213790894,1097,1.0,30.0,2.0
25.430861949920654,2032,1.0,30.0,2.0
25.438873052597046,1389,1.0,30.0,2.0
25.44675612449646,2071,1.0,30.0,2.0
25.456771850585938,1095,1.0,30.0,2.0
25.47293448448181,2060,1.0,30.0,2.0
25.48296070098877,1431,1.0,30.0,2.0
25.49294900894165,2078,1.0,30.0,2.0
25.50295329093933,1577,1.0,30.0,2.0
25.512943029403687,2122,1.0,30.0,2.0
25.52294683456421,1342,1.0,30.0,2.0
25.532946586608887,2131,1.0,30.0,2.0
25.542962551116943,1429,1.0,30.0,2.0
25.552969455718994,2017,1.0,30.0,2.0
25.562968730926514,2434,1.0,30.0,2.0
25.572946548461914,2031,1.0,30.0,2.0
25.582969427108765,2151,1.0,30.0,2.0
25.59294581413269,1721,1.0,30.0,2.0
25.602946519851685,2586,1.0,30.0,2.0
25.61307430267334,1933,1.0,30.0,2.0
25.622631072998047,3038,1.0,30.0,2.0
25.63109278678894,2240,1.0,30.0,2.0
25.63909912109375,3541,1.0,30.0,2.0
25.65289878845215,2397,1.0,30.0,2.0
25.663167476654053,3370,1.0,30.0,2.0
25.6732439994812,2407,1.0,30.0,2.0
25.67424201965332,3422,1.0,30.0,2.0
25.692927360534668,2309,1.0,30.0,2.0
25.702609300613403,3134,1.0,30.0,2.0
25.712866067886353,1968,1.0,30.0,2.0
25.72132968902588,2819,1.0,30.0,2.0
25.73239302635193,848,1.0,30.0,2.0
25.737706661224365,2192,1.0,30.0,2.0
25.747721195220947,528,1.0,30.0,2.0
25.757718086242676,1383,1.0,30.0,2.0
25.767718076705933,1472,1.0,30.0,2.0
25.783157110214233,702,1.0,30.0,2.0
25.791908502578735,503,1.0,30.0,2.0
25.79673933982849,261,1.0,30.0,2.0
25.812928676605225,502,1.0,30.0,2.0
25.82270908355713,87,1.0,30.0,2.0
25.83283042907715,1239,1.0,30.0,2.0
25.842644214630127,528,1.0,30.0,2.0
25.853054761886597,1373,1.0,30.0,2.0
25.862454891204834,0,1.0,30.0,2.0
25.872504711151123,345,1.0,30.0,2.0
25.88273310661316,0,1.0,30.0,2.0
25.89237380027771,2229,1.0,30.0,2.0
25.902806043624878,1037,1.0,30.0,2.0
25.912494659423828,2301,1.0,30.0,2.0
25.91870427131653,2411,1.0,30.0,2.0
25.932564735412598,2290,1.0,30.0,2.0
25.942111492156982,4095,1.0,30.0,2.0
25.950339555740356,2294,1.0,30.0,2.0
25.962318897247314,4095,1.0,30.0,2.0
25.971208095550537,2300,1.0,30.0,2.0
25.982948064804077,4095,1.0,30.0,2.0
25.992549419403076,2297,1.0,30.0,2.0
25.99454402923584,4095,1.0,30.0,2.0
26.006405115127563,2189,1.0,30.0,2.0
26.016414165496826,4095,1.0,30.0,2.0
26.02641463279724,2119,1.0,30.0,2.0
26.03883695602417,4095,1.0,30.0,2.0
26.05198335647583,1996,1.0,30.0,2.0
26.063151359558105,4095,1.0,30.0,2.0
26.07215929031372,1949,1.0,30.0,2.0
26.082080602645874,4095,1.0,30.0,2.0
26.090132474899292,1373,1.0,30.0,2.0
26.102942943572998,3293,1.0,30.0,2.0
26.11294960975647,1762,1.0,30.0,2.0
26.12294888496399,4095,1.0,30.0,2.0
26.13296914100647,1998,1.0,30.0,2.0
26.14295268058777,4095,1.0,30.0,2.0
26.152926445007324,2150,1.0,30.0,2.0
26.162724018096924,4095,1.0,30.0,2.0
26.172990322113037,1919,1.0,30.0,2.0
26.182432889938354,4095,1.0,30.0,2.0
26.184426069259644,1617,1.0,30.0,2.0
26.199991703033447,4011,1.0,30.0,2.0
26.212969303131104,1328,1.0,30.0,2.0
26.222538709640503,4095,1.0,30.0,2.0
26.232874155044556,1757,1.0,30.0,2.0
26.242266178131104,4095,1.0,30.0,2.0
26.252941131591797,1349,1.0,30.0,2.0
26.26266360282898,0,1.0,30.0,2.0
26.27148127555847,1289,1.0,30.0,2.0
26.2807776927948,1959,1.0,30.0,2.0
26.292931079864502,2229,1.0,30.0,2.0
26.302539110183716,522,1.0,30.0,2.0
26.312864542007446,1407,1.0,30.0,2.0
26.322680711746216,2650,1.0,30.0,2.0
26.331889152526855,1393,1.0,30.0,2.0
26.33913826942444,1429,1.0,30.0,2.0
26.353535890579224,1082,1.0,30.0,2.0
26.36298370361328,0,1.0,30.0,2.0
26.370058298110962,1456,1.0,30.0,2.0
26.381103515625,1842,1.0,30.0,2.0
26.393277168273926,1395,1.0,30.0,2.0
26.402875661849976,209,1.0,30.0,2.0
26.41354513168335,1163,1.0,30.0,2.0
26.42267084121704,0,1.0,30.0,2.0
26.4329731464386,1156,1.0,30.0,2.0
26.439231395721436,2184,1.0,30.0,2.0
26.453470468521118,717,1.0,30.0,2.0
26.462263107299805,0,1.0,30.0,2.0
26.47245144844055,1558,1.0,30.0,2.0
26.482271194458008,3306,1.0,30.0,2.0
26.49272918701172,1797,1.0,30.0,2.0
26.502413034439087,1671,1.0,30.0,2.0
26.513437032699585,1207,1.0,30.0,2.0
26.522368907928467,4095,1.0,30.0,2.0
26.533278465270996,1407,1.0,30.0,2.0
26.5383882522583,4095,1.0,30.0,2.0
26.54527735710144,1468,1.0,30.0,2.0
26.555275201797485,4095,1.0,30.0,2.0
26.570001125335693,1227,1.0,30.0,2.0
26.575589656829834,4095,1.0,30.0,2.0
26.585596561431885,1386,1.0,30.0,2.0
26.595595598220825,4095,1.0,30.0,2.0
26.607134103775024,1565,1.0,30.0,2.0
26.618494033813477,4095,1.0,30.0,2.0
26.630176305770874,1616,1.0,30.0,2.0
26.640218019485474,4095,1.0,30.0,2.0
26.653135776519775,1328,1.0,30.0,2.0
26.663167238235474,4095,1.0,30.0,2.0
26.6733295917511,1237,1.0,30.0,2.0
26.68256902694702,4095,1.0,30.0,2.0
26.692638635635376,1292,1.0,30.0,2.0
26.699230909347534,4095,1.0,30.0,2.0
26.712280988693237,1349,1.0,30.0,2.0
26.72262740135193,4095,1.0,30.0,2.0
26.730690240859985,690,1.0,30.0,2.0
26.740689516067505,2797,1.0,30.0,2.0
26.74621081352234,699,1.0,30.0,2.0
26.762518644332886,0,1.0,30.0,2.0
26.770395755767822,1325,1.0,30.0,2.0
26.7771635055542,1922,1.0,30.0,2.0
26.79259443283081,1360,1.0,30.0,2.0
26.800172567367554,3008,1.0,30.0,2.0
26.808232069015503,1088,1.0,30.0,2.0
26.823277473449707,1202,1.0,30.0,2.0
26.831090927124023,1168,1.0,30.0,2.0
26.838722467422485,2533,1.0,30.0,2.0
26.847593307495117,699,1.0,30.0,2.0
26.86284112930298,0,1.0,30.0,2.0
26.870298624038696,779,1.0,30.0,2.0
26.88088583946228,2416,1.0,30.0,2.0
26.892296075820923,1351,1.0,30.0,2.0
26.903218269348145,2950,1.0,30.0,2.0
26.912858724594116,1171,1.0,30.0,2.0
26.923064947128296,3165,1.0,30.0,2.0
26.933184385299683,1200,1.0,30.0,2.0
26.936381101608276,2791,1.0,30.0,2.0
26.952979803085327,1320,1.0,30.0,2.0
26.962751626968384,2811,1.0,30.0,2.0
26.971437215805054,1319,1.0,30.0,2.0
26.982364654541016,2672,1.0,30.0,2.0
26.984509468078613,1322,1.0,30.0,2.0
27.0027117729187,1795,1.0,30.0,2.0
27.01258635520935,586,1.0,30.0,2.0
27.023365259170532,2128,1.0,30.0,2.0
27.03209161758423,0,1.0,30.0,2.0
27.037235736846924,2098,1.0,30.0,2.0
27.052374362945557,1317,1.0,30.0,2.0
27.062574863433838,2572,1.0,30.0,2.0
27.071938276290894,1328,1.0,30.0,2.0
27.082625150680542,2559,1.0,30.0,2.0
27.08538317680359,1356,1.0,30.0,2.0
27.10237193107605,2455,1.0,30.0,2.0
27.1129093170166,981,1.0,30.0,2.0
27.122490167617798,4095,1.0,30.0,2.0
27.132519483566284,1680,1.0,30.0,2.0
27.13877844810486,2395,1.0,30.0,2.0
27.153261423110962,2445,1.0,30.0,2.0
27.16305422782898,1317,1.0,30.0,2.0
27.171940326690674,1198,1.0,30.0,2.0
27.18315052986145,4095,1.0,30.0,2.0
27.191682815551758,578,1.0,30.0,2.0
27.20251989364624,902,1.0,30.0,2.0
27.212456703186035,1355,1.0,30.0,2.0
27.22264862060547,1137,1.0,30.0,2.0
27.232158422470093,412,1.0,30.0,2.0
27.238361358642578,0,1.0,30.0,2.0
27.252639532089233,1271,1.0,30.0,2.0
27.262567281723022,0,1.0,30.0,2.0
27.27282691001892,750,1.0,30.0,2.0
27.28303337097168,0,1.0,30.0,2.0
27.290671348571777,109,1.0,30.0,2.0
27.30247950553894,0,1.0,30.0,2.0
27.311741590499878,1936,1.0,30.0,2.0
27.322501182556152,143,1.0,30.0,2.0
27.332504987716675,1125,1.0,30.0,2.0
27.343162298202515,2881,1.0,30.0,2.0
27.353098154067993,1424,1.0,30.0,2.0
27.363147020339966,4095,1.0,30.0,2.0
27.368377447128296,1099,1.0,30.0,2.0
27.38301420211792,3779,1.0,30.0,2.0
27.386817932128906,839,1.0,30.0,2.0
27.40214967727661,3404,1.0,30.0,2.0
27.412516593933105,1296,1.0,30.0,2.0
27.420968294143677,3041,1.0,30.0,2.0
27.433032751083374,1314,1.0,30.0,2.0
27.43880796432495,3118,1.0,30.0,2.0
27.453060626983643,1364,1.0,30.0,2.0
27.462482213974,60,1.0,30.0,2.0
27.468181133270264,1328,1.0,30.0,2.0
27.48277974128723,880,1.0,30.0,2.0
27.49229121208191,685,1.0,30.0,2.0
27.501307249069214,1705,1.0,30.0,2.0
27.51317262649536,0,1.0,30.0,2.0
27.522478580474854,93,1.0,30.0,2.0
27.530859231948853,523,1.0,30.0,2.0
27.542685985565186,2704,1.0,30.0,2.0
27.553045511245728,1740,1.0,30.0,2.0
27.56254768371582,0,1.0,30.0,2.0
27.57002854347229,1232,1.0,30.0,2.0
27.58263087272644,1296,1.0,30.0,2.0
27.591744899749756,1282,1.0,30.0,2.0
27.603102684020996,1733,1.0,30.0,2.0
27.61274266242981,851,1.0,30.0,2.0
27.62055778503418,3134,1.0,30.0,2.0
27.63071608543396,1270,1.0,30.0,2.0
27.642513513565063,2790,1.0,30.0,2.0
27.653101921081543,1182,1.0,30.0,2.0
27.66270875930786,1833,1.0,30.0,2.0
27.67291259765625,487,1.0,30.0,2.0
27.68284797668457,4095,1.0,30.0,2.0
27.687439441680908,1307,1.0,30.0,2.0
27.703109741210938,3376,1.0,30.0,2.0
27.712745189666748,1229,1.0,30.0,2.0
27.720295906066895,3558,1.0,30.0,2.0
27.73295831680298,1282,1.0,30.0,2.0
27.738786458969116,3344,1.0,30.0,2.0
27.75312352180481,1264,1.0,30.0,2.0
27.762983560562134,3626,1.0,30.0,2.0
27.773133754730225,1185,1.0,30.0,2.0
27.782455921173096,2182,1.0,30.0,2.0
27.786354064941406,1023,1.0,30.0,2.0
27.801432609558105,2612,1.0,30.0,2.0
27.813048362731934,1121,1.0,30.0,2.0
27.82011842727661,2768,1.0,30.0,2.0
27.832979440689087,841,1.0,30.0,2.0
27.837383031845093,1937,1.0,30.0,2.0
27.851836919784546,987,1.0,30.0,2.0
27.863044023513794,3595,1.0,30.0,2.0
27.870146989822388,243,1.0,30.0,2.0
27.882424354553223,117,1.0,30.0,2.0
27.891290187835693,955,1.0,30.0,2.0
27.90281867980957,451,1.0,30.0,2.0
27.913037538528442,940,1.0,30.0,2.0
27.922993659973145,521,1.0,30.0,2.0
27.93275260925293,2272,1.0,30.0,2.0
27.942391395568848,4095,1.0,30.0,2.0
27.952906847000122,2096,1.0,30.0,2.0
27.96390151977539,4095,1.0,30.0,2.0
27.972901105880737,2102,1.0,30.0,2.0
27.982230186462402,4095,1.0,30.0,2.0
27.992456674575806,1754,1.0,30.0,2.0
28.00288224220276,2701,1.0,30.0,2.0
28.012593507766724,1574,1.0,30.0,2.0
28.023091554641724,2533,1.0,30.0,2.0
28.0332989692688,1266,1.0,30.0,2.0
28.04296112060547,1970,1.0,30.0,2.0
28.052618265151978,1241,1.0,30.0,2.0
28.06160259246826,2844,1.0,30.0,2.0
28.073043823242188,1535,1.0,30.0,2.0
28.08240818977356,3488,1.0,30.0,2.0
28.092592239379883,1487,1.0,30.0,2.0
28.10274577140808,626,1.0,30.0,2.0
28.11297106742859,613,1.0,30.0,2.0
28.122493743896484,2709,1.0,30.0,2.0
28.132423400878906,832,1.0,30.0,2.0
28.138232707977295,2403,1.0,30.0,2.0
28.15316867828369,1321,1.0,30.0,2.0
28.162695169448853,4095,1.0,30.0,2.0
28.17245602607727,894,1.0,30.0,2.0
28.182689905166626,3675,1.0,30.0,2.0
28.18982481956482,1324,1.0,30.0,2.0
28.202987670898438,1195,1.0,30.0,2.0
28.2126202583313,1937,1.0,30.0,2.0
28.22268509864807,286,1.0,30.0,2.0
28.23288893699646,1387,1.0,30.0,2.0
28.242444276809692,938,1.0,30.0,2.0
28.25251531600952,2063,1.0,30.0,2.0
28.26332950592041,1239,1.0,30.0,2.0
28.272761344909668,145,1.0,30.0,2.0
28.282235383987427,2153,1.0,30.0,2.0
28.291017532348633,576,1.0,30.0,2.0
28.303364753723145,2204,1.0,30.0,2.0
28.312488794326782,720,1.0,30.0,2.0
28.318594694137573,1927,1.0,30.0,2.0
28.33294677734375,1229,1.0,30.0,2.0
28.336661338806152,2192,1.0,30.0,2.0
28.35144329071045,787,1.0,30.0,2.0
28.361580848693848,2503,1.0,30.0,2.0
28.37187099456787,804,1.0,30.0,2.0
28.378233194351196,2418,1.0,30.0,2.0
28.39257788658142,838,1.0,30.0,2.0
28.39789915084839,2478,1.0,30.0,2.0
28.412999868392944,767,1.0,30.0,2.0
28.431137084960938,2823,1.0,30.0,2.0
28.433207273483276,789,1.0,30.0,2.0
28.442894220352173,4095,1.0,30.0,2.0
28.451780319213867,862,1.0,30.0,2.0
28.462728023529053,2177,1.0,30.0,2.0
28.472098112106323,1705,1.0,30.0,2.0
28.48287343978882,4095,1.0,30.0,2.0
28.487899780273438,1223,1.0,30.0,2.0
28.502464056015015,3237,1.0,30.0,2.0
28.512959003448486,1136,1.0,30.0,2.0
28.519961833953857,1569,1.0,30.0,2.0
28.532728910446167,1305,1.0,30.0,2.0
28.53609871864319,354,1.0,30.0,2.0
28.55032753944397,1266,1.0,30.0,2.0
28.56260895729065,1251,1.0,30.0,2.0
28.573559045791626,147,1.0,30.0,2.0
28.583126544952393,382,1.0,30.0,2.0
28.593316316604614,445,1.0,30.0,2.0
28.60327911376953,842,1.0,30.0,2.0
28.612837314605713,1643,1.0,30.0,2.0
28.619559288024902,2575,1.0,30.0,2.0
28.632394790649414,1682,1.0,30.0,2.0
28.64280080795288,1869,1.0,30.0,2.0
28.651514291763306,1392,1.0,30.0,2.0
28.662583589553833,2035,1.0,30.0,2.0
28.66963267326355,1511,1.0,30.0,2.0
28.68308663368225,2096,1.0,30.0,2.0
28.68752431869507,1280,1.0,30.0,2.0
28.70310616493225,1680,1.0,30.0,2.0
28.712648630142212,1360,1.0,30.0,2.0
28.720524549484253,589,1.0,30.0,2.0
28.733081579208374,628,1.0,30.0,2.0
28.73516297340393,0,1.0,30.0,2.0
28.751054525375366,960,1.0,30.0,2.0
28.76266050338745,384,1.0,30.0,2.0
28.77306365966797,882,1.0,30.0,2.0
28.783108711242676,3885,1.0,30.0,2.0
28.78745436668396,2217,1.0,30.0,2.0
28.803218603134155,1103,1.0,30.0,2.0
28.812886714935303,1807,1.0,30.0,2.0
28.821108102798462,960,1.0,30.0,2.0
28.832756280899048,1002,1.0,30.0,2.0
28.835666179656982,0,1.0,30.0,2.0
28.852833032608032,194,1.0,30.0,2.0
28.862617254257202,77,1.0,30.0,2.0
28.872884035110474,2299,1.0,30.0,2.0
28.88261127471924,0,1.0,30.0,2.0
28.892517805099487,144,1.0,30.0,2.0
28.90278148651123,1686,1.0,30.0,2.0
28.912556886672974,487,1.0,30.0,2.0
28.922317504882812,1602,1.0,30.0,2.0
28.93256163597107,230,1.0,30.0,2.0
28.94295835494995,945,1.0,30.0,2.0
28.952170610427856,368,1.0,30.0,2.0
28.96336054801941,156,1.0,30.0,2.0
28.97278332710266,0,1.0,30.0,2.0
28.98272132873535,338,1.0,30.0,2.0
28.992700815200806,0,1.0,30.0,2.0
29.00235891342163,0,1.0,30.0,2.0
29.01280927658081,0,1.0,30.0,2.0
29.023070812225342,1858,1.0,30.0,2.0
29.033037424087524,0,1.0,30.0,2.0
29.04306149482727,769,1.0,30.0,2.0
29.053085803985596,240,1.0,30.0,2.0
29.063220739364624,0,1.0,30.0,2.0
29.07140851020813,969,1.0,30.0,2.0
29.08246922492981,2547,1.0,30.0,2.0
29.09272599220276,1389,1.0,30.0,2.0
29.102903366088867,790,1.0,30.0,2.0
29.11252522468567,1227,1.0,30.0,2.0
29.117271423339844,774,1.0,30.0,2.0
29.13258123397827,1360,1.0,30.0,2.0
29.142449378967285,1348,1.0,30.0,2.0
29.152544021606445,1083,1.0,30.0,2.0
29.163127660751343,500,1.0,30.0,2.0
29.172847509384155,1350,1.0,30.0,2.0
29.18301486968994,2064,1.0,30.0,2.0
29.191455841064453,1471,1.0,30.0,2.0
29.20266628265381,0,1.0,30.0,2.0
29.213046073913574,1889,1.0,30.0,2.0
29.22225332260132,0,1.0,30.0,2.0
29.232839107513428,58,1.0,30.0,2.0
29.243083715438843,105,1.0,30.0,2.0
29.252535581588745,981,1.0,30.0,2.0
29.263394832611084,1909,1.0,30.0,2.0
29.272539138793945,1647,1.0,30.0,2.0
29.282219886779785,1520,1.0,30.0,2.0
29.29214310646057,1529,1.0,30.0,2.0
29.30301070213318,2180,1.0,30.0,2.0
29.313087224960327,1197,1.0,30.0,2.0
29.318405389785767,2118,1.0,30.0,2.0
29.332078456878662,0,1.0,30.0,2.0
29.335248231887817,287,1.0,30.0,2.0
29.352185487747192,478,1.0,30.0,2.0
29.36279058456421,290,1.0,30.0,2.0
29.372247219085693,464,1.0,30.0,2.0
29.383222818374634,0,1.0,30.0,2.0
29.392818689346313,1558,1.0,30.0,2.0
29.40281105041504,1139,1.0,30.0,2.0
29.412682056427002,1360,1.0,30.0,2.0
29.42281937599182,332,1.0,30.0,2.0
29.432862281799316,1303,1.0,30.0,2.0
29.44267702102661,1104,1.0,30.0,2.0
29.45238208770752,2151,1.0,30.0,2.0
29.463173627853394,4095,1.0,30.0,2.0
29.472329139709473,1607,1.0,30.0,2.0
29.482359886169434,3995,1.0,30.0,2.0
29.492709398269653,1274,1.0,30.0,2.0
29.501506805419922,4055,1.0,30.0,2.0
29.51287579536438,1243,1.0,30.0,2.0
29.516758680343628,627,1.0,30.0,2.0
29.532997846603394,1442,1.0,30.0,2.0
29.53502368927002,2467,1.0,30.0,2.0
29.55301260948181,1071,1.0,30.0,2.0
29.56276559829712,2256,1.0,30.0,2.0
29.57153010368347,1316,1.0,30.0,2.0
29.58223032951355,0,1.0,30.0,2.0
29.586886405944824,852,1.0,30.0,2.0
29.60253596305847,991,1.0,30.0,2.0
29.61262059211731,359,1.0,30.0,2.0
29.619991779327393,1250,1.0,30.0,2.0
29.63245701789856,401,1.0,30.0,2.0
29.64248013496399,0,1.0,30.0,2.0
29.653106451034546,1334,1.0,30.0,2.0
29.662694931030273,0,1.0,30.0,2.0
29.6701717376709,1409,1.0,30.0,2.0
29.682522535324097,16,1.0,30.0,2.0
29.686985969543457,1302,1.0,30.0,2.0
29.702857732772827,80,1.0,30.0,2.0
29.713052988052368,1557,1.0,30.0,2.0
29.71770453453064,49,1.0,30.0,2.0
29.73289394378662,1408,1.0,30.0,2.0
29.739258766174316,125,1.0,30.0,2.0
29.75093150138855,1527,1.0,30.0,2.0
29.762394905090332,497,1.0,30.0,2.0
29.769970178604126,1328,1.0,30.0,2.0
29.782808303833008,0,1.0,30.0,2.0
29.78669261932373,1383,1.0,30.0,2.0
29.80294108390808,41,1.0,30.0,2.0
29.81317639350891,1334,1.0,30.0,2.0
29.819186687469482,0,1.0,30.0,2.0
29.83301568031311,1318,1.0,30.0,2.0
29.84042525291443,0,1.0,30.0,2.0
29.85265302658081,1168,1.0,30.0,2.0
29.86264681816101,0,1.0,30.0,2.0
29.873056411743164,1313,1.0,30.0,2.0
29.882218599319458,0,1.0,30.0,2.0
29.88899302482605,1168,1.0,30.0,2.0
29.903076648712158,103,1.0,30.0,2.0
29.91268825531006,535,1.0,30.0,2.0
29.92309069633484,1005,1.0,30.0,2.0
29.932994842529297,1434,1.0,30.0,2.0
29.943274974822998,93,1.0,30.0,2.0
29.953107833862305,921,1.0,30.0,2.0
29.962555170059204,1334,1.0,30.0,2.0
29.97065758705139,1264,1.0,30.0,2.0
29.98264789581299,1401,1.0,30.0,2.0
29.992915630340576,70,1.0,30.0,2.0
