Timestamp,EMG Value,massage_speed,massage_duration,relaxment_level
0.003427267074584961,495,0.0,30.0,4.0
0.013448238372802734,750,0.0,30.0,4.0
0.02344655990600586,148,0.0,30.0,4.0
0.0256195068359375,1037,0.0,30.0,4.0
0.0375361442565918,317,0.0,30.0,4.0
0.047547340393066406,735,0.0,30.0,4.0
0.05754423141479492,62,0.0,30.0,4.0
0.07351207733154297,345,0.0,30.0,4.0
0.0780336856842041,99,0.0,30.0,4.0
0.08813285827636719,365,0.0,30.0,4.0
0.09971141815185547,60,0.0,30.0,4.0
0.10972070693969727,0,0.0,30.0,4.0
0.11713528633117676,16,0.0,30.0,4.0
0.12714195251464844,0,0.0,30.0,4.0
0.13714218139648438,0,0.0,30.0,4.0
0.14714527130126953,0,0.0,30.0,4.0
0.15714192390441895,0,0.0,30.0,4.0
0.174102783203125,4095,0.0,30.0,4.0
0.17510247230529785,462,0.0,30.0,4.0
0.19416189193725586,4095,0.0,30.0,4.0
0.1951613426208496,575,0.0,30.0,4.0
0.21394705772399902,4095,0.0,30.0,4.0
0.21617341041564941,303,0.0,30.0,4.0
0.23399639129638672,1653,0.0,30.0,4.0
0.24337077140808105,275,0.0,30.0,4.0
0.2513856887817383,0,0.0,30.0,4.0
0.26471614837646484,4095,0.0,30.0,4.0
0.27272558212280273,754,0.0,30.0,4.0
0.2839329242706299,4095,0.0,30.0,4.0
0.29396581649780273,1081,0.0,30.0,4.0
0.3039407730102539,4095,0.0,30.0,4.0
0.30493879318237305,795,0.0,30.0,4.0
0.32393884658813477,4095,0.0,30.0,4.0
0.3339705467224121,1197,0.0,30.0,4.0
0.34394168853759766,4095,0.0,30.0,4.0
0.35400891304016113,1291,0.0,30.0,4.0
0.3639645576477051,4095,0.0,30.0,4.0
0.3740072250366211,1343,0.0,30.0,4.0
0.38395023345947266,4095,0.0,30.0,4.0
0.3939642906188965,1385,0.0,30.0,4.0
0.40394115447998047,4095,0.0,30.0,4.0
0.4049398899078369,1373,0.0,30.0,4.0
0.42394137382507324,4095,0.0,30.0,4.0
0.4347407817840576,1360,0.0,30.0,4.0
0.4447042942047119,4095,0.0,30.0,4.0
0.45395374298095703,1377,0.0,30.0,4.0
0.4596986770629883,4095,0.0,30.0,4.0
0.4739704132080078,1358,0.0,30.0,4.0
0.48394131660461426,4095,0.0,30.0,4.0
0.4939751625061035,1190,0.0,30.0,4.0
0.5039463043212891,4095,0.0,30.0,4.0
0.5140178203582764,1285,0.0,30.0,4.0
0.5239675045013428,4095,0.0,30.0,4.0
0.5339395999908447,1345,0.0,30.0,4.0
0.5440115928649902,4095,0.0,30.0,4.0
0.5539429187774658,1257,0.0,30.0,4.0
0.563941240310669,4095,0.0,30.0,4.0
0.5739679336547852,1681,0.0,30.0,4.0
0.5839424133300781,4095,0.0,30.0,4.0
0.5940089225769043,1671,0.0,30.0,4.0
0.6039400100708008,4095,0.0,30.0,4.0
0.6139662265777588,2414,0.0,30.0,4.0
0.6239709854125977,4095,0.0,30.0,4.0
0.6339452266693115,2611,0.0,30.0,4.0
0.6439409255981445,4095,0.0,30.0,4.0
0.6537792682647705,2508,0.0,30.0,4.0
0.663931131362915,4095,0.0,30.0,4.0
0.6740102767944336,2535,0.0,30.0,4.0
0.6843862533569336,4095,0.0,30.0,4.0
0.6939659118652344,2321,0.0,30.0,4.0
0.7049777507781982,4095,0.0,30.0,4.0
0.7139444351196289,2213,0.0,30.0,4.0
0.7239706516265869,4095,0.0,30.0,4.0
0.7339498996734619,2112,0.0,30.0,4.0
0.7439837455749512,4095,0.0,30.0,4.0
0.753972053527832,1935,0.0,30.0,4.0
0.763967752456665,4095,0.0,30.0,4.0
0.7740094661712646,1882,0.0,30.0,4.0
0.7839581966400146,4095,0.0,30.0,4.0
0.7939658164978027,1660,0.0,30.0,4.0
0.8040134906768799,4095,0.0,30.0,4.0
0.8140122890472412,1584,0.0,30.0,4.0
0.8239448070526123,4095,0.0,30.0,4.0
0.834176778793335,1473,0.0,30.0,4.0
0.844994306564331,4095,0.0,30.0,4.0
0.844994306564331,1316,0.0,30.0,4.0
0.8645579814910889,4095,0.0,30.0,4.0
0.8703773021697998,1261,0.0,30.0,4.0
0.8839292526245117,4095,0.0,30.0,4.0
0.8933711051940918,829,0.0,30.0,4.0
0.9013853073120117,4095,0.0,30.0,4.0
0.9104177951812744,630,0.0,30.0,4.0
0.9239392280578613,4095,0.0,30.0,4.0
0.9249370098114014,381,0.0,30.0,4.0
0.9349470138549805,4095,0.0,30.0,4.0
0.9449460506439209,447,0.0,30.0,4.0
0.963982343673706,4095,0.0,30.0,4.0
0.9649803638458252,304,0.0,30.0,4.0
0.9839441776275635,4095,0.0,30.0,4.0
0.9850335121154785,247,0.0,30.0,4.0
1.0008108615875244,0,0.0,30.0,4.0
1.0139861106872559,1806,0.0,30.0,4.0
1.014984369277954,1535,0.0,30.0,4.0
1.0249931812286377,912,0.0,30.0,4.0
1.0439820289611816,1336,0.0,30.0,4.0
1.044985294342041,858,0.0,30.0,4.0
1.0549912452697754,1222,0.0,30.0,4.0
1.0728774070739746,973,0.0,30.0,4.0
1.0839636325836182,1133,0.0,30.0,4.0
1.0937213897705078,994,0.0,30.0,4.0
1.0989654064178467,1098,0.0,30.0,4.0
1.1136884689331055,960,0.0,30.0,4.0
1.1216933727264404,902,0.0,30.0,4.0
1.1262259483337402,945,0.0,30.0,4.0
1.1437013149261475,944,0.0,30.0,4.0
1.1446983814239502,882,0.0,30.0,4.0
1.1547067165374756,634,0.0,30.0,4.0
1.1647076606750488,730,0.0,30.0,4.0
1.1747081279754639,192,0.0,30.0,4.0
1.1847078800201416,70,0.0,30.0,4.0
1.203664779663086,87,0.0,30.0,4.0
1.2136733531951904,0,0.0,30.0,4.0
1.223667860031128,2293,0.0,30.0,4.0
1.2336680889129639,1598,0.0,30.0,4.0
1.2436678409576416,2357,0.0,30.0,4.0
1.2536680698394775,1446,0.0,30.0,4.0
1.263664960861206,768,0.0,30.0,4.0
1.2736687660217285,0,0.0,30.0,4.0
1.284837007522583,501,0.0,30.0,4.0
1.293724775314331,0,0.0,30.0,4.0
1.300283432006836,473,0.0,30.0,4.0
1.313661813735962,160,0.0,30.0,4.0
1.3216667175292969,557,0.0,30.0,4.0
1.3262243270874023,551,0.0,30.0,4.0
1.3362343311309814,576,0.0,30.0,4.0
1.3524389266967773,293,0.0,30.0,4.0
1.363785743713379,528,0.0,30.0,4.0
1.3737893104553223,229,0.0,30.0,4.0
1.3837916851043701,431,0.0,30.0,4.0
1.3938040733337402,221,0.0,30.0,4.0
1.4038043022155762,516,0.0,30.0,4.0
1.4137916564941406,341,0.0,30.0,4.0
1.4237921237945557,330,0.0,30.0,4.0
1.4337918758392334,243,0.0,30.0,4.0
1.4437901973724365,198,0.0,30.0,4.0
1.453791856765747,192,0.0,30.0,4.0
1.4637916088104248,195,0.0,30.0,4.0
1.4737918376922607,178,0.0,30.0,4.0
1.4838027954101562,176,0.0,30.0,4.0
1.49385666847229,147,0.0,30.0,4.0
1.5030145645141602,90,0.0,30.0,4.0
1.5125069618225098,118,0.0,30.0,4.0
1.5206117630004883,137,0.0,30.0,4.0
1.5276834964752197,13,0.0,30.0,4.0
1.542832374572754,88,0.0,30.0,4.0
1.5528435707092285,5,0.0,30.0,4.0
1.562842607498169,16,0.0,30.0,4.0
1.5736839771270752,16,0.0,30.0,4.0
1.5837135314941406,0,0.0,30.0,4.0
1.5937130451202393,0,0.0,30.0,4.0
1.603713035583496,0,0.0,30.0,4.0
1.6137135028839111,0,0.0,30.0,4.0
1.6237132549285889,0,0.0,30.0,4.0
1.6337103843688965,0,0.0,30.0,4.0
1.6437387466430664,71,0.0,30.0,4.0
1.6538867950439453,0,0.0,30.0,4.0
1.654883861541748,0,0.0,30.0,4.0
1.6648919582366943,0,0.0,30.0,4.0
1.6748933792114258,2491,0.0,30.0,4.0
1.6848936080932617,35,0.0,30.0,4.0
1.7033042907714844,2227,0.0,30.0,4.0
1.7108139991760254,273,0.0,30.0,4.0
1.718864917755127,2623,0.0,30.0,4.0
1.725139856338501,0,0.0,30.0,4.0
1.7438719272613525,1882,0.0,30.0,4.0
1.7438719272613525,0,0.0,30.0,4.0
1.763887643814087,2315,0.0,30.0,4.0
1.7738821506500244,0,0.0,30.0,4.0
1.7838821411132812,2100,0.0,30.0,4.0
1.786207914352417,0,0.0,30.0,4.0
1.796224594116211,2502,0.0,30.0,4.0
1.8062248229980469,0,0.0,30.0,4.0
1.8162236213684082,2558,0.0,30.0,4.0
1.8335041999816895,0,0.0,30.0,4.0
1.8352913856506348,2540,0.0,30.0,4.0
1.8453288078308105,567,0.0,30.0,4.0
1.862896203994751,2571,0.0,30.0,4.0
1.873025894165039,1323,0.0,30.0,4.0
1.8750214576721191,2524,0.0,30.0,4.0
1.8850328922271729,1682,0.0,30.0,4.0
1.8950283527374268,2471,0.0,30.0,4.0
1.9130451679229736,1550,0.0,30.0,4.0
1.9210655689239502,2453,0.0,30.0,4.0
1.929112434387207,2383,0.0,30.0,4.0
1.941845178604126,2451,0.0,30.0,4.0
1.9498498439788818,516,0.0,30.0,4.0
1.9596216678619385,200,0.0,30.0,4.0
1.96763014793396,0,0.0,30.0,4.0
1.9766693115234375,0,0.0,30.0,4.0
1.9877839088439941,0,0.0,30.0,4.0
1.9977917671203613,2294,0.0,30.0,4.0
2.013478994369507,1168,0.0,30.0,4.0
2.01859450340271,2346,0.0,30.0,4.0
2.0337131023406982,1261,0.0,30.0,4.0
2.0437257289886475,2233,0.0,30.0,4.0
2.0537221431732178,1524,0.0,30.0,4.0
2.0637340545654297,2166,0.0,30.0,4.0
2.0737216472625732,1663,0.0,30.0,4.0
2.0837249755859375,1937,0.0,30.0,4.0
2.0937249660491943,1984,0.0,30.0,4.0
2.103818655014038,1800,0.0,30.0,4.0
2.1143856048583984,1924,0.0,30.0,4.0
2.123544931411743,1424,0.0,30.0,4.0
2.1264214515686035,1555,0.0,30.0,4.0
2.1432487964630127,1215,0.0,30.0,4.0
2.153498411178589,1650,0.0,30.0,4.0
2.1603851318359375,1555,0.0,30.0,4.0
2.1703946590423584,1524,0.0,30.0,4.0
2.1803948879241943,1677,0.0,30.0,4.0
2.1904237270355225,1373,0.0,30.0,4.0
2.200394868850708,1632,0.0,30.0,4.0
2.210418701171875,1301,0.0,30.0,4.0
2.2203948497772217,1525,0.0,30.0,4.0
2.2303969860076904,1296,0.0,30.0,4.0
2.2403948307037354,1554,0.0,30.0,4.0
2.250424861907959,1094,0.0,30.0,4.0
2.263686418533325,1317,0.0,30.0,4.0
2.2737033367156982,985,0.0,30.0,4.0
2.283698558807373,1301,0.0,30.0,4.0
2.293717622756958,820,0.0,30.0,4.0
2.303698778152466,1104,0.0,30.0,4.0
2.313816547393799,935,0.0,30.0,4.0
2.3148133754730225,1248,0.0,30.0,4.0
2.333594560623169,663,0.0,30.0,4.0
2.3431153297424316,1138,0.0,30.0,4.0
2.352133274078369,687,0.0,30.0,4.0
2.3635408878326416,1524,0.0,30.0,4.0
2.3737168312072754,777,0.0,30.0,4.0
2.381547689437866,1334,0.0,30.0,4.0
2.3915538787841797,671,0.0,30.0,4.0
2.401561737060547,693,0.0,30.0,4.0
2.4115548133850098,549,0.0,30.0,4.0
2.4215586185455322,1909,0.0,30.0,4.0
2.43155574798584,599,0.0,30.0,4.0
2.4415557384490967,1377,0.0,30.0,4.0
2.451554298400879,955,0.0,30.0,4.0
2.461554527282715,1269,0.0,30.0,4.0
2.4737093448638916,815,0.0,30.0,4.0
2.4837212562561035,1214,0.0,30.0,4.0
2.4937336444854736,767,0.0,30.0,4.0
2.5037224292755127,2084,0.0,30.0,4.0
2.513737201690674,615,0.0,30.0,4.0
2.523721933364868,1520,0.0,30.0,4.0
2.533721685409546,1167,0.0,30.0,4.0
2.543835163116455,1164,0.0,30.0,4.0
2.553079128265381,656,0.0,30.0,4.0
2.55924654006958,1332,0.0,30.0,4.0
2.5672607421875,594,0.0,30.0,4.0
2.577054977416992,989,0.0,30.0,4.0
2.5926642417907715,537,0.0,30.0,4.0
2.6037099361419678,962,0.0,30.0,4.0
2.6137402057647705,550,0.0,30.0,4.0
2.623718500137329,930,0.0,30.0,4.0
2.6258296966552734,515,0.0,30.0,4.0
2.6358373165130615,896,0.0,30.0,4.0
2.645836353302002,528,0.0,30.0,4.0
2.655850410461426,950,0.0,30.0,4.0
2.6658363342285156,414,0.0,30.0,4.0
2.6758365631103516,823,0.0,30.0,4.0
2.6858363151550293,446,0.0,30.0,4.0
2.6969900131225586,777,0.0,30.0,4.0
2.7070021629333496,432,0.0,30.0,4.0
2.717007637023926,752,0.0,30.0,4.0
2.73083758354187,390,0.0,30.0,4.0
2.7408483028411865,605,0.0,30.0,4.0
2.753561496734619,479,0.0,30.0,4.0
2.763787269592285,723,0.0,30.0,4.0
2.7647855281829834,411,0.0,30.0,4.0
2.777352809906006,698,0.0,30.0,4.0
2.7929012775421143,325,0.0,30.0,4.0
2.802260398864746,380,0.0,30.0,4.0
2.812424421310425,2079,0.0,30.0,4.0
2.822439193725586,2155,0.0,30.0,4.0
2.833709955215454,1356,0.0,30.0,4.0
2.843722105026245,2186,0.0,30.0,4.0
2.8537209033966064,1982,0.0,30.0,4.0
2.863917350769043,1232,0.0,30.0,4.0
2.8729844093322754,816,0.0,30.0,4.0
2.87577748298645,1103,0.0,30.0,4.0
2.88578724861145,979,0.0,30.0,4.0
2.9019625186920166,1236,0.0,30.0,4.0
2.9119672775268555,675,0.0,30.0,4.0
2.9219672679901123,985,0.0,30.0,4.0
2.9336843490600586,622,0.0,30.0,4.0
2.9436962604522705,1221,0.0,30.0,4.0
2.95377516746521,748,0.0,30.0,4.0
2.963719367980957,1440,0.0,30.0,4.0
2.9682374000549316,1099,0.0,30.0,4.0
2.9783642292022705,1357,0.0,30.0,4.0
2.9918768405914307,1171,0.0,30.0,4.0
3.000814199447632,1326,0.0,30.0,4.0
3.008814573287964,860,0.0,30.0,4.0
3.0168442726135254,1371,0.0,30.0,4.0
3.0268449783325195,822,0.0,30.0,4.0
3.0382533073425293,1360,0.0,30.0,4.0
3.0491979122161865,755,0.0,30.0,4.0
3.0591981410980225,1447,0.0,30.0,4.0
3.0691978931427,717,0.0,30.0,4.0
3.0836846828460693,1355,0.0,30.0,4.0
3.0937130451202393,720,0.0,30.0,4.0
3.1036932468414307,1559,0.0,30.0,4.0
3.1136934757232666,619,0.0,30.0,4.0
3.1236934661865234,1410,0.0,30.0,4.0
3.1337127685546875,821,0.0,30.0,4.0
3.143723249435425,1597,0.0,30.0,4.0
3.153919219970703,691,0.0,30.0,4.0
3.1549181938171387,1527,0.0,30.0,4.0
3.173588514328003,794,0.0,30.0,4.0
3.1774654388427734,1547,0.0,30.0,4.0
3.1930642127990723,717,0.0,30.0,4.0
3.203295946121216,1535,0.0,30.0,4.0
3.21016788482666,691,0.0,30.0,4.0
3.22021222114563,1353,0.0,30.0,4.0
3.2301788330078125,671,0.0,30.0,4.0
3.2388381958007812,1458,0.0,30.0,4.0
3.2488772869110107,698,0.0,30.0,4.0
3.2588560581207275,0,0.0,30.0,4.0
3.26885724067688,442,0.0,30.0,4.0
3.278855800628662,0,0.0,30.0,4.0
3.2936830520629883,582,0.0,30.0,4.0
3.3036952018737793,0,0.0,30.0,4.0
3.3136913776397705,686,0.0,30.0,4.0
3.3236944675445557,0,0.0,30.0,4.0
3.3336992263793945,704,0.0,30.0,4.0
3.3436944484710693,0,0.0,30.0,4.0
3.3536953926086426,1117,0.0,30.0,4.0
3.3638203144073486,0,0.0,30.0,4.0
3.3648197650909424,658,0.0,30.0,4.0
3.383760690689087,0,0.0,30.0,4.0
3.3938119411468506,1122,0.0,30.0,4.0
3.4029130935668945,0,0.0,30.0,4.0
3.41039776802063,656,0.0,30.0,4.0
3.418443202972412,1151,0.0,30.0,4.0
3.426905393600464,1902,0.0,30.0,4.0
3.4391794204711914,2453,0.0,30.0,4.0
3.449197292327881,1984,0.0,30.0,4.0
3.459196090698242,2019,0.0,30.0,4.0
3.469196081161499,1424,0.0,30.0,4.0
3.4791975021362305,1671,0.0,30.0,4.0
3.4891974925994873,1365,0.0,30.0,4.0
3.499194622039795,1278,0.0,30.0,4.0
3.5137107372283936,1483,0.0,30.0,4.0
3.523719549179077,1088,0.0,30.0,4.0
3.5337226390838623,1335,0.0,30.0,4.0
3.543722629547119,930,0.0,30.0,4.0
3.553722858428955,1069,0.0,30.0,4.0
3.5637218952178955,743,0.0,30.0,4.0
3.573723554611206,935,0.0,30.0,4.0
3.5837225914001465,533,0.0,30.0,4.0
3.5943992137908936,594,0.0,30.0,4.0
3.603731632232666,1663,0.0,30.0,4.0
3.61232852935791,1146,0.0,30.0,4.0
3.621164560317993,378,0.0,30.0,4.0
3.6272177696228027,747,0.0,30.0,4.0
3.6424295902252197,279,0.0,30.0,4.0
3.653688907623291,679,0.0,30.0,4.0
3.6637189388275146,176,0.0,30.0,4.0
3.673692226409912,477,0.0,30.0,4.0
3.683682680130005,141,0.0,30.0,4.0
3.6937198638916016,1397,0.0,30.0,4.0
3.703695297241211,130,0.0,30.0,4.0
3.713690996170044,1198,0.0,30.0,4.0
3.7236945629119873,97,0.0,30.0,4.0
3.7340235710144043,837,0.0,30.0,4.0
3.736894369125366,39,0.0,30.0,4.0
3.7481608390808105,730,0.0,30.0,4.0
3.7581677436828613,33,0.0,30.0,4.0
3.7736833095550537,709,0.0,30.0,4.0
3.7836923599243164,27,0.0,30.0,4.0
3.793795347213745,635,0.0,30.0,4.0
3.794792890548706,19,0.0,30.0,4.0
3.813624620437622,619,0.0,30.0,4.0
3.8230104446411133,0,0.0,30.0,4.0
3.8332879543304443,539,0.0,30.0,4.0
3.8434131145477295,0,0.0,30.0,4.0
3.851445198059082,621,0.0,30.0,4.0
3.8593814373016357,0,0.0,30.0,4.0
3.8674168586730957,1457,0.0,30.0,4.0
3.8754515647888184,0,0.0,30.0,4.0
3.8864364624023438,1310,0.0,30.0,4.0
3.8964362144470215,0,0.0,30.0,4.0
3.9064364433288574,1368,0.0,30.0,4.0
3.9225175380706787,0,0.0,30.0,4.0
3.9337103366851807,1267,0.0,30.0,4.0
3.943723201751709,0,0.0,30.0,4.0
3.953723192214966,1168,0.0,30.0,4.0
3.9637248516082764,0,0.0,30.0,4.0
3.9737231731414795,1197,0.0,30.0,4.0
3.98371958732605,367,0.0,30.0,4.0
3.993722677230835,791,0.0,30.0,4.0
4.003890752792358,183,0.0,30.0,4.0
4.004886150360107,1232,0.0,30.0,4.0
4.024121284484863,549,0.0,30.0,4.0
4.028087854385376,1232,0.0,30.0,4.0
4.0437095165252686,654,0.0,30.0,4.0
4.053735256195068,891,0.0,30.0,4.0
4.059012174606323,1623,0.0,30.0,4.0
4.069268465042114,862,0.0,30.0,4.0
4.080229997634888,1073,0.0,30.0,4.0
4.090226888656616,1126,0.0,30.0,4.0
4.100227117538452,1584,0.0,30.0,4.0
4.11022686958313,1227,0.0,30.0,4.0
4.120226621627808,1066,0.0,30.0,4.0
4.13022780418396,896,0.0,30.0,4.0
4.140228033065796,326,0.0,30.0,4.0
4.150226831436157,913,0.0,30.0,4.0
4.163710355758667,128,0.0,30.0,4.0
4.173729658126831,753,0.0,30.0,4.0
4.183722257614136,0,0.0,30.0,4.0
4.193722724914551,550,0.0,30.0,4.0
4.203722238540649,0,0.0,30.0,4.0
4.213729381561279,334,0.0,30.0,4.0
4.223718881607056,0,0.0,30.0,4.0
4.23385763168335,2438,0.0,30.0,4.0
4.243634939193726,0,0.0,30.0,4.0
4.2523415088653564,2262,0.0,30.0,4.0
4.261672258377075,0,0.0,30.0,4.0
4.271820783615112,2157,0.0,30.0,4.0
4.275964975357056,0,0.0,30.0,4.0
4.292028903961182,1905,0.0,30.0,4.0
4.303709983825684,0,0.0,30.0,4.0
4.313726186752319,1419,0.0,30.0,4.0
4.32372260093689,0,0.0,30.0,4.0
4.324202060699463,1325,0.0,30.0,4.0
4.336419343948364,0,0.0,30.0,4.0
4.346434831619263,1214,0.0,30.0,4.0
4.356435298919678,0,0.0,30.0,4.0
4.366434812545776,962,0.0,30.0,4.0
4.37643575668335,0,0.0,30.0,4.0
4.386435270309448,1239,0.0,30.0,4.0
4.396434783935547,0,0.0,30.0,4.0
4.406435012817383,1463,0.0,30.0,4.0
4.416435956954956,0,0.0,30.0,4.0
4.433100700378418,1326,0.0,30.0,4.0
4.4435813426971436,0,0.0,30.0,4.0
4.453088998794556,1094,0.0,30.0,4.0
4.46096396446228,0,0.0,30.0,4.0
4.468989133834839,1111,0.0,30.0,4.0
4.478130340576172,469,0.0,30.0,4.0
4.492264032363892,945,0.0,30.0,4.0
4.50368332862854,1299,0.0,30.0,4.0
4.513694763183594,1236,0.0,30.0,4.0
4.523694753646851,1705,0.0,30.0,4.0
4.52545952796936,1299,0.0,30.0,4.0
4.53546667098999,1458,0.0,30.0,4.0
4.545467853546143,1280,0.0,30.0,4.0
4.555467844009399,1833,0.0,30.0,4.0
4.565466642379761,1324,0.0,30.0,4.0
4.575466632843018,2017,0.0,30.0,4.0
4.585478067398071,1614,0.0,30.0,4.0
4.595466613769531,1626,0.0,30.0,4.0
4.605468034744263,1151,0.0,30.0,4.0
4.615466594696045,2649,0.0,30.0,4.0
4.625467300415039,1529,0.0,30.0,4.0
4.635467767715454,2273,0.0,30.0,4.0
4.645496845245361,987,0.0,30.0,4.0
4.66229248046875,2442,0.0,30.0,4.0
4.67190146446228,826,0.0,30.0,4.0
4.676999092102051,2170,0.0,30.0,4.0
4.6915223598480225,1349,0.0,30.0,4.0
4.700397968292236,1813,0.0,30.0,4.0
4.709951639175415,1286,0.0,30.0,4.0
4.721248626708984,1979,0.0,30.0,4.0
4.733710765838623,1494,0.0,30.0,4.0
4.743721961975098,2330,0.0,30.0,4.0
4.753854990005493,1473,0.0,30.0,4.0
4.754854679107666,2500,0.0,30.0,4.0
4.764870882034302,1406,0.0,30.0,4.0
4.774874687194824,2496,0.0,30.0,4.0
4.784868478775024,1233,0.0,30.0,4.0
4.794868230819702,2526,0.0,30.0,4.0
4.804868698120117,1678,0.0,30.0,4.0
4.814868450164795,1575,0.0,30.0,4.0
4.824868202209473,1300,0.0,30.0,4.0
4.834877252578735,2496,0.0,30.0,4.0
4.844867706298828,1391,0.0,30.0,4.0
4.854870319366455,1712,0.0,30.0,4.0
4.873614311218262,1394,0.0,30.0,4.0
4.881413459777832,1830,0.0,30.0,4.0
4.893098592758179,1700,0.0,30.0,4.0
4.89628529548645,2532,0.0,30.0,4.0
4.908859491348267,1618,0.0,30.0,4.0
4.918905019760132,2416,0.0,30.0,4.0
4.928903579711914,1328,0.0,30.0,4.0
4.943641662597656,2085,0.0,30.0,4.0
4.945708990097046,1285,0.0,30.0,4.0
4.955714225769043,1730,0.0,30.0,4.0
4.965713024139404,832,0.0,30.0,4.0
4.975980043411255,1344,0.0,30.0,4.0
4.986945867538452,1386,0.0,30.0,4.0
4.996945142745972,1042,0.0,30.0,4.0
5.006946802139282,1250,0.0,30.0,4.0
5.018086671829224,895,0.0,30.0,4.0
5.028101921081543,1675,0.0,30.0,4.0
5.043709754943848,630,0.0,30.0,4.0
5.053722381591797,1175,0.0,30.0,4.0
5.0637218952178955,372,0.0,30.0,4.0
5.073721170425415,1633,0.0,30.0,4.0
5.083858013153076,2163,0.0,30.0,4.0
5.093612432479858,1731,0.0,30.0,4.0
5.0998382568359375,1424,0.0,30.0,4.0
5.112361192703247,1310,0.0,30.0,4.0
5.120396852493286,1226,0.0,30.0,4.0
5.133836030960083,1291,0.0,30.0,4.0
5.142879486083984,1474,0.0,30.0,4.0
5.153710603713989,1255,0.0,30.0,4.0
5.163722515106201,928,0.0,30.0,4.0
5.173722505569458,992,0.0,30.0,4.0
5.183723211288452,1424,0.0,30.0,4.0
5.193728685379028,1263,0.0,30.0,4.0
5.2037224769592285,1610,0.0,30.0,4.0
5.2137322425842285,1328,0.0,30.0,4.0
5.223907947540283,1808,0.0,30.0,4.0
5.223907947540283,1093,0.0,30.0,4.0
5.234845876693726,1408,0.0,30.0,4.0
5.244845628738403,1231,0.0,30.0,4.0
5.254845857620239,1461,0.0,30.0,4.0
5.264845848083496,1527,0.0,30.0,4.0
5.274845838546753,1483,0.0,30.0,4.0
5.293974161148071,1409,0.0,30.0,4.0
5.298025369644165,1650,0.0,30.0,4.0
5.3102195262908936,1094,0.0,30.0,4.0
5.318251132965088,1114,0.0,30.0,4.0
5.33384895324707,1120,0.0,30.0,4.0
5.3438475131988525,99,0.0,30.0,4.0
5.353944301605225,1079,0.0,30.0,4.0
5.354960203170776,1143,0.0,30.0,4.0
5.364984512329102,1677,0.0,30.0,4.0
5.375004053115845,1422,0.0,30.0,4.0
5.386330604553223,1305,0.0,30.0,4.0
5.396347284317017,879,0.0,30.0,4.0
5.406373500823975,1392,0.0,30.0,4.0
5.416346549987793,1555,0.0,30.0,4.0
5.426346063613892,1342,0.0,30.0,4.0
5.436359405517578,1941,0.0,30.0,4.0
5.446346044540405,1597,0.0,30.0,4.0
5.463471174240112,1614,0.0,30.0,4.0
5.464507341384888,1617,0.0,30.0,4.0
5.47451114654541,1894,0.0,30.0,4.0
5.484511137008667,1511,0.0,30.0,4.0
5.503909111022949,2432,0.0,30.0,4.0
5.511781215667725,1270,0.0,30.0,4.0
5.51640510559082,2390,0.0,30.0,4.0
5.526976585388184,1286,0.0,30.0,4.0
5.54153299331665,2430,0.0,30.0,4.0
5.5501251220703125,1278,0.0,30.0,4.0
5.558230876922607,2331,0.0,30.0,4.0
5.567201137542725,1307,0.0,30.0,4.0
5.577203273773193,2355,0.0,30.0,4.0
5.587202310562134,1306,0.0,30.0,4.0
5.597203493118286,2021,0.0,30.0,4.0
5.6072022914886475,1296,0.0,30.0,4.0
5.617203235626221,2026,0.0,30.0,4.0
5.627202987670898,1299,0.0,30.0,4.0
5.637202262878418,695,0.0,30.0,4.0
5.64720344543457,963,0.0,30.0,4.0
5.65720272064209,11,0.0,30.0,4.0
5.667202472686768,615,0.0,30.0,4.0
5.6836841106414795,147,0.0,30.0,4.0
5.693692922592163,2221,0.0,30.0,4.0
5.70369291305542,0,0.0,30.0,4.0
5.713786602020264,2145,0.0,30.0,4.0
5.723636865615845,0,0.0,30.0,4.0
5.728097677230835,1927,0.0,30.0,4.0
5.7411112785339355,1586,0.0,30.0,4.0
5.750085115432739,1739,0.0,30.0,4.0
5.7579333782196045,2186,0.0,30.0,4.0
5.766751527786255,1552,0.0,30.0,4.0
5.782775163650513,2644,0.0,30.0,4.0
5.793710231781006,1306,0.0,30.0,4.0
5.803722143173218,2389,0.0,30.0,4.0
5.813721656799316,1452,0.0,30.0,4.0
5.82372260093689,1758,0.0,30.0,4.0
5.833721876144409,1254,0.0,30.0,4.0
5.843719959259033,2332,0.0,30.0,4.0
5.853722810745239,1353,0.0,30.0,4.0
5.863722324371338,2448,0.0,30.0,4.0
5.8737218379974365,1299,0.0,30.0,4.0
5.883721351623535,2270,0.0,30.0,4.0
5.893718719482422,1167,0.0,30.0,4.0
5.90382981300354,2080,0.0,30.0,4.0
5.905834436416626,1180,0.0,30.0,4.0
5.9158477783203125,2192,0.0,30.0,4.0
5.928435325622559,1372,0.0,30.0,4.0
5.943681716918945,2139,0.0,30.0,4.0
5.9516921043396,1320,0.0,30.0,4.0
5.961370944976807,2052,0.0,30.0,4.0
5.973111867904663,1328,0.0,30.0,4.0
5.976584196090698,1905,0.0,30.0,4.0
5.986598968505859,1204,0.0,30.0,4.0
5.996598720550537,1810,0.0,30.0,4.0
6.006604909896851,971,0.0,30.0,4.0
6.0165979862213135,1750,0.0,30.0,4.0
6.026697397232056,1256,0.0,30.0,4.0
6.037714004516602,1723,0.0,30.0,4.0
6.047683477401733,1551,0.0,30.0,4.0
6.05768346786499,1441,0.0,30.0,4.0
6.067684173583984,4095,0.0,30.0,4.0
6.0776989459991455,1425,0.0,30.0,4.0
6.087684154510498,4095,0.0,30.0,4.0
6.097721099853516,1366,0.0,30.0,4.0
6.1076836585998535,4095,0.0,30.0,4.0
6.117683172225952,1190,0.0,30.0,4.0
6.128735303878784,4095,0.0,30.0,4.0
6.142340183258057,1183,0.0,30.0,4.0
6.153655290603638,4095,0.0,30.0,4.0
6.158997535705566,1120,0.0,30.0,4.0
6.167710065841675,4095,0.0,30.0,4.0
6.183272123336792,1297,0.0,30.0,4.0
6.192023038864136,4095,0.0,30.0,4.0
6.202036380767822,1279,0.0,30.0,4.0
6.212038516998291,4095,0.0,30.0,4.0
6.22370982170105,1172,0.0,30.0,4.0
6.233721971511841,4095,0.0,30.0,4.0
6.243721961975098,1519,0.0,30.0,4.0
6.253718614578247,4095,0.0,30.0,4.0
6.2637224197387695,1481,0.0,30.0,4.0
6.273722410202026,4095,0.0,30.0,4.0
6.283711910247803,1435,0.0,30.0,4.0
6.293729066848755,4095,0.0,30.0,4.0
6.303724050521851,1468,0.0,30.0,4.0
6.313724517822266,4095,0.0,30.0,4.0
6.323724269866943,1358,0.0,30.0,4.0
6.3337242603302,4095,0.0,30.0,4.0
6.343724489212036,1380,0.0,30.0,4.0
6.353899717330933,4095,0.0,30.0,4.0
6.363340854644775,1488,0.0,30.0,4.0
6.373708486557007,3888,0.0,30.0,4.0
6.383988857269287,1528,0.0,30.0,4.0
6.393706560134888,4095,0.0,30.0,4.0
6.401716232299805,1427,0.0,30.0,4.0
6.408881187438965,4095,0.0,30.0,4.0
6.416895627975464,1574,0.0,30.0,4.0
6.4249491691589355,4095,0.0,30.0,4.0
6.435923337936401,1451,0.0,30.0,4.0
6.445924282073975,2982,0.0,30.0,4.0
6.4559245109558105,1280,0.0,30.0,4.0
6.465923309326172,2108,0.0,30.0,4.0
6.475923538208008,1103,0.0,30.0,4.0
6.491894006729126,2678,0.0,30.0,4.0
6.503710031509399,1344,0.0,30.0,4.0
6.513722658157349,3061,0.0,30.0,4.0
6.523720026016235,1610,0.0,30.0,4.0
6.533721923828125,2512,0.0,30.0,4.0
6.5437211990356445,1818,0.0,30.0,4.0
6.5537269115448,635,0.0,30.0,4.0
6.563841342926025,1875,0.0,30.0,4.0
6.566836357116699,809,0.0,30.0,4.0
6.5840067863464355,1765,0.0,30.0,4.0
6.593779802322388,1936,0.0,30.0,4.0
6.602776288986206,1600,0.0,30.0,4.0
6.608789682388306,2366,0.0,30.0,4.0
6.61678671836853,1669,0.0,30.0,4.0
6.624854564666748,1744,0.0,30.0,4.0
6.635809659957886,1930,0.0,30.0,4.0
6.64581036567688,2337,0.0,30.0,4.0
6.655809640884399,1925,0.0,30.0,4.0
6.665809392929077,1031,0.0,30.0,4.0
6.675809621810913,1715,0.0,30.0,4.0
6.685810804367065,1071,0.0,30.0,4.0
6.703683853149414,1610,0.0,30.0,4.0
6.7136924266815186,1719,0.0,30.0,4.0
6.723695993423462,1713,0.0,30.0,4.0
6.733696937561035,1910,0.0,30.0,4.0
6.743696212768555,1695,0.0,30.0,4.0
6.753695726394653,130,0.0,30.0,4.0
6.763692378997803,1598,0.0,30.0,4.0
6.773865222930908,206,0.0,30.0,4.0
6.776975154876709,1431,0.0,30.0,4.0
6.792288303375244,816,0.0,30.0,4.0
6.7964537143707275,1659,0.0,30.0,4.0
6.809990167617798,804,0.0,30.0,4.0
6.818138122558594,1889,0.0,30.0,4.0
6.826184988021851,1695,0.0,30.0,4.0
6.836196422576904,1841,0.0,30.0,4.0
6.8462135791778564,1984,0.0,30.0,4.0
6.858349561691284,1673,0.0,30.0,4.0
6.868346691131592,29,0.0,30.0,4.0
6.878346920013428,1850,0.0,30.0,4.0
6.888347625732422,2519,0.0,30.0,4.0
6.9037086963653564,2160,0.0,30.0,4.0
6.913721084594727,2021,0.0,30.0,4.0
6.9237213134765625,1920,0.0,30.0,4.0
6.933722734451294,1741,0.0,30.0,4.0
6.943721055984497,1887,0.0,30.0,4.0
6.9537272453308105,879,0.0,30.0,4.0
6.96372127532959,1584,0.0,30.0,4.0
6.9737231731414795,1728,0.0,30.0,4.0
6.983871221542358,1549,0.0,30.0,4.0
6.99294376373291,2264,0.0,30.0,4.0
6.995378017425537,1516,0.0,30.0,4.0
7.007755517959595,1437,0.0,30.0,4.0
7.023567199707031,1280,0.0,30.0,4.0
7.033641576766968,1774,0.0,30.0,4.0
7.041924715042114,1306,0.0,30.0,4.0
7.051939010620117,1366,0.0,30.0,4.0
7.063710451126099,1248,0.0,30.0,4.0
7.073737859725952,4,0.0,30.0,4.0
7.083723545074463,1040,0.0,30.0,4.0
7.0937230587005615,1431,0.0,30.0,4.0
7.103724002838135,1418,0.0,30.0,4.0
7.11371922492981,2783,0.0,30.0,4.0
7.123719215393066,1280,0.0,30.0,4.0
7.133719205856323,2591,0.0,30.0,4.0
7.143723011016846,1018,0.0,30.0,4.0
7.153723955154419,2405,0.0,30.0,4.0
7.163727045059204,1200,0.0,30.0,4.0
7.173723220825195,1165,0.0,30.0,4.0
7.183725595474243,1870,0.0,30.0,4.0
7.184110164642334,757,0.0,30.0,4.0
7.203751564025879,1776,0.0,30.0,4.0
7.213358402252197,384,0.0,30.0,4.0
7.221421241760254,1803,0.0,30.0,4.0
7.2267210483551025,0,0.0,30.0,4.0
7.241936445236206,1953,0.0,30.0,4.0
7.251951217651367,0,0.0,30.0,4.0
7.263708591461182,2047,0.0,30.0,4.0
7.273720979690552,0,0.0,30.0,4.0
7.283716917037964,1715,0.0,30.0,4.0
7.293720960617065,0,0.0,30.0,4.0
7.3037285804748535,1690,0.0,30.0,4.0
7.308729887008667,0,0.0,30.0,4.0
7.323709011077881,1574,0.0,30.0,4.0
7.3337180614471436,0,0.0,30.0,4.0
7.343721628189087,1407,0.0,30.0,4.0
7.353726387023926,0,0.0,30.0,4.0
7.355297088623047,1266,0.0,30.0,4.0
7.36530327796936,0,0.0,30.0,4.0
7.375304698944092,1241,0.0,30.0,4.0
7.385303735733032,0,0.0,30.0,4.0
7.39741849899292,1202,0.0,30.0,4.0
7.40746545791626,0,0.0,30.0,4.0
7.420947313308716,1227,0.0,30.0,4.0
7.432548761367798,0,0.0,30.0,4.0
7.4417724609375,1287,0.0,30.0,4.0
7.449783802032471,0,0.0,30.0,4.0
7.4586591720581055,1250,0.0,30.0,4.0
7.466668367385864,753,0.0,30.0,4.0
7.475727796554565,1055,0.0,30.0,4.0
7.485734701156616,0,0.0,30.0,4.0
7.495734691619873,918,0.0,30.0,4.0
7.508953332901001,0,0.0,30.0,4.0
7.52350115776062,846,0.0,30.0,4.0
7.524500608444214,0,0.0,30.0,4.0
7.540978193283081,827,0.0,30.0,4.0
7.550983190536499,78,0.0,30.0,4.0
7.560981035232544,883,0.0,30.0,4.0
7.570982456207275,0,0.0,30.0,4.0
7.580983877182007,1088,0.0,30.0,4.0
7.59368109703064,0,0.0,30.0,4.0
7.603693962097168,1784,0.0,30.0,4.0
7.613691568374634,0,0.0,30.0,4.0
7.623693227767944,720,0.0,30.0,4.0
7.633794546127319,1211,0.0,30.0,4.0
7.641742706298828,1673,0.0,30.0,4.0
7.651854515075684,1627,0.0,30.0,4.0
7.659729957580566,833,0.0,30.0,4.0
7.674304485321045,1909,0.0,30.0,4.0
7.683439016342163,831,0.0,30.0,4.0
7.693524599075317,1529,0.0,30.0,4.0
7.70357871055603,1220,0.0,30.0,4.0
7.7135961055755615,311,0.0,30.0,4.0
7.72358512878418,1462,0.0,30.0,4.0
7.733713865280151,986,0.0,30.0,4.0
7.734710931777954,1889,0.0,30.0,4.0
7.745823621749878,1663,0.0,30.0,4.0
7.755844593048096,1784,0.0,30.0,4.0
7.765841722488403,1509,0.0,30.0,4.0
7.7758448123931885,1837,0.0,30.0,4.0
7.785841703414917,1796,0.0,30.0,4.0
7.795841932296753,1331,0.0,30.0,4.0
7.80584192276001,848,0.0,30.0,4.0
7.815840482711792,1496,0.0,30.0,4.0
7.825841903686523,834,0.0,30.0,4.0
7.84068489074707,1057,0.0,30.0,4.0
7.853428363800049,0,0.0,30.0,4.0
7.8584630489349365,526,0.0,30.0,4.0
7.8739259243011475,0,0.0,30.0,4.0
7.883334398269653,531,0.0,30.0,4.0
7.8913867473602295,0,0.0,30.0,4.0
7.902379274368286,472,0.0,30.0,4.0
7.912379026412964,0,0.0,30.0,4.0
7.922378063201904,822,0.0,30.0,4.0
7.932405710220337,64,0.0,30.0,4.0
7.942378520965576,1855,0.0,30.0,4.0
7.952380657196045,4095,0.0,30.0,4.0
7.962378978729248,1621,0.0,30.0,4.0
7.972379207611084,4095,0.0,30.0,4.0
7.9823784828186035,1600,0.0,30.0,4.0
7.992378234863281,3933,0.0,30.0,4.0
8.00368618965149,1350,0.0,30.0,4.0
8.013700485229492,2752,0.0,30.0,4.0
8.023706674575806,1572,0.0,30.0,4.0
8.033698320388794,1549,0.0,30.0,4.0
8.043920516967773,1257,0.0,30.0,4.0
8.050100803375244,1599,0.0,30.0,4.0
8.062906742095947,1355,0.0,30.0,4.0
8.07403564453125,1334,0.0,30.0,4.0
8.076030731201172,1219,0.0,30.0,4.0
8.09311318397522,2597,0.0,30.0,4.0
8.101150274276733,1305,0.0,30.0,4.0
8.108243227005005,1038,0.0,30.0,4.0
8.118255376815796,1184,0.0,30.0,4.0
8.128254413604736,1823,0.0,30.0,4.0
8.138254165649414,1193,0.0,30.0,4.0
8.14825439453125,2581,0.0,30.0,4.0
8.158254384994507,1281,0.0,30.0,4.0
8.168270111083984,1425,0.0,30.0,4.0
8.183684587478638,1266,0.0,30.0,4.0
8.193697452545166,2193,0.0,30.0,4.0
8.203696966171265,1286,0.0,30.0,4.0
8.213693618774414,1980,0.0,30.0,4.0
8.223693370819092,1210,0.0,30.0,4.0
8.233697414398193,2195,0.0,30.0,4.0
8.243693590164185,1109,0.0,30.0,4.0
8.253694295883179,2191,0.0,30.0,4.0
8.263696193695068,1169,0.0,30.0,4.0
8.273868322372437,1395,0.0,30.0,4.0
8.28387999534607,1236,0.0,30.0,4.0
8.292500257492065,2239,0.0,30.0,4.0
8.300537109375,1136,0.0,30.0,4.0
8.308211326599121,2250,0.0,30.0,4.0
8.32396936416626,1281,0.0,30.0,4.0
8.325862407684326,2605,0.0,30.0,4.0
8.335869312286377,1324,0.0,30.0,4.0
8.345867156982422,1555,0.0,30.0,4.0
8.355868339538574,1261,0.0,30.0,4.0
8.365868091583252,2823,0.0,30.0,4.0
8.375892877578735,1310,0.0,30.0,4.0
8.385868072509766,2618,0.0,30.0,4.0
8.396978616714478,1243,0.0,30.0,4.0
8.406995058059692,2164,0.0,30.0,4.0
8.416994094848633,1287,0.0,30.0,4.0
8.42699408531189,2629,0.0,30.0,4.0
8.436996221542358,1181,0.0,30.0,4.0
8.446994543075562,2576,0.0,30.0,4.0
8.456994533538818,1271,0.0,30.0,4.0
8.466994047164917,2421,0.0,30.0,4.0
8.48360276222229,1344,0.0,30.0,4.0
8.49295163154602,1426,0.0,30.0,4.0
8.500964641571045,1392,0.0,30.0,4.0
8.508172273635864,1946,0.0,30.0,4.0
8.52394962310791,1300,0.0,30.0,4.0
8.524842500686646,2254,0.0,30.0,4.0
8.535723686218262,1303,0.0,30.0,4.0
8.545726537704468,2478,0.0,30.0,4.0
8.561585426330566,1343,0.0,30.0,4.0
8.571589231491089,2491,0.0,30.0,4.0
8.58158826828003,1107,0.0,30.0,4.0
8.591589212417603,2435,0.0,30.0,4.0
8.603710889816284,1135,0.0,30.0,4.0
8.613723516464233,2011,0.0,30.0,4.0
8.62372374534607,1057,0.0,30.0,4.0
8.633723974227905,1916,0.0,30.0,4.0
8.643723726272583,999,0.0,30.0,4.0
8.653723239898682,1554,0.0,30.0,4.0
8.663724184036255,767,0.0,30.0,4.0
8.673726081848145,1152,0.0,30.0,4.0
8.683722496032715,1358,0.0,30.0,4.0
8.693836450576782,874,0.0,30.0,4.0
8.703710317611694,2083,0.0,30.0,4.0
8.709136486053467,719,0.0,30.0,4.0
8.723820924758911,1296,0.0,30.0,4.0
8.726255655288696,793,0.0,30.0,4.0
8.742661476135254,1106,0.0,30.0,4.0
8.753709316253662,1797,0.0,30.0,4.0
8.763721227645874,1582,0.0,30.0,4.0
8.773717641830444,1575,0.0,30.0,4.0
8.783720970153809,1473,0.0,30.0,4.0
8.793721199035645,695,0.0,30.0,4.0
8.803720951080322,1276,0.0,30.0,4.0
8.813720226287842,0,0.0,30.0,4.0
8.82371997833252,1298,0.0,30.0,4.0
8.83380651473999,560,0.0,30.0,4.0
8.84371829032898,1377,0.0,30.0,4.0
8.853906631469727,1680,0.0,30.0,4.0
8.854888200759888,1303,0.0,30.0,4.0
8.873775243759155,2512,0.0,30.0,4.0
8.883883237838745,1518,0.0,30.0,4.0
8.894076108932495,2385,0.0,30.0,4.0
8.895074367523193,1530,0.0,30.0,4.0
8.913381814956665,2186,0.0,30.0,4.0
8.924092292785645,1453,0.0,30.0,4.0
8.92759919166565,2507,0.0,30.0,4.0
8.941426277160645,1424,0.0,30.0,4.0
8.951578855514526,2672,0.0,30.0,4.0
8.959095478057861,1455,0.0,30.0,4.0
8.973803520202637,2477,0.0,30.0,4.0
8.97479796409607,1520,0.0,30.0,4.0
8.984858512878418,1943,0.0,30.0,4.0
8.995986938476562,1450,0.0,30.0,4.0
9.006000757217407,1840,0.0,30.0,4.0
9.016000509262085,1520,0.0,30.0,4.0
9.026000738143921,2093,0.0,30.0,4.0
9.036001205444336,1357,0.0,30.0,4.0
9.046000480651855,1673,0.0,30.0,4.0
9.056003332138062,1637,0.0,30.0,4.0
9.072745323181152,1837,0.0,30.0,4.0
9.083938598632812,1655,0.0,30.0,4.0
9.084936618804932,1074,0.0,30.0,4.0
9.103938579559326,1514,0.0,30.0,4.0
9.113946199417114,1145,0.0,30.0,4.0
9.125239133834839,1483,0.0,30.0,4.0
9.133100032806396,1139,0.0,30.0,4.0
9.143537044525146,1392,0.0,30.0,4.0
9.153640031814575,999,0.0,30.0,4.0
9.15829586982727,1494,0.0,30.0,4.0
9.173929452896118,1238,0.0,30.0,4.0
9.175811767578125,1614,0.0,30.0,4.0
9.193889856338501,1397,0.0,30.0,4.0
9.203896760940552,1552,0.0,30.0,4.0
9.213895559310913,910,0.0,30.0,4.0
9.223895072937012,1592,0.0,30.0,4.0
9.233895063400269,1057,0.0,30.0,4.0
9.243895053863525,1277,0.0,30.0,4.0
9.253895282745361,1352,0.0,30.0,4.0
9.263895034790039,1229,0.0,30.0,4.0
9.27389645576477,1616,0.0,30.0,4.0
9.283895492553711,1280,0.0,30.0,4.0
9.29389500617981,1095,0.0,30.0,4.0
9.303894758224487,1395,0.0,30.0,4.0
9.313710451126099,1043,0.0,30.0,4.0
9.323725700378418,1569,0.0,30.0,4.0
9.333829402923584,848,0.0,30.0,4.0
9.34376835823059,1485,0.0,30.0,4.0
9.345464944839478,663,0.0,30.0,4.0
9.359431743621826,1247,0.0,30.0,4.0
9.373698472976685,251,0.0,30.0,4.0
9.382704496383667,980,0.0,30.0,4.0
9.391785144805908,100,0.0,30.0,4.0
9.401793479919434,1820,0.0,30.0,4.0
9.41179871559143,0,0.0,30.0,4.0
9.421793460845947,1516,0.0,30.0,4.0
9.431793212890625,945,0.0,30.0,4.0
9.44179368019104,1326,0.0,30.0,4.0
9.45179271697998,2130,0.0,30.0,4.0
9.4617919921875,1158,0.0,30.0,4.0
9.471792221069336,2525,0.0,30.0,4.0
9.481791973114014,1019,0.0,30.0,4.0
9.491799116134644,1142,0.0,30.0,4.0
9.503709077835083,1661,0.0,30.0,4.0
9.513720512390137,1387,0.0,30.0,4.0
9.523720979690552,768,0.0,30.0,4.0
9.53372597694397,1456,0.0,30.0,4.0
9.543846845626831,1143,0.0,30.0,4.0
9.553677558898926,1685,0.0,30.0,4.0
9.559387445449829,1373,0.0,30.0,4.0
9.573654174804688,1712,0.0,30.0,4.0
9.583861351013184,1534,0.0,30.0,4.0
9.591413259506226,1669,0.0,30.0,4.0
9.601423025131226,1383,0.0,30.0,4.0
9.613686084747314,1247,0.0,30.0,4.0
9.623705625534058,2094,0.0,30.0,4.0
9.633698463439941,1312,0.0,30.0,4.0
9.643700361251831,2014,0.0,30.0,4.0
9.653698205947876,1254,0.0,30.0,4.0
9.663800954818726,2069,0.0,30.0,4.0
9.664798259735107,1249,0.0,30.0,4.0
9.674817562103271,1766,0.0,30.0,4.0
9.684821128845215,1312,0.0,30.0,4.0
9.694816589355469,1584,0.0,30.0,4.0
9.704816818237305,1838,0.0,30.0,4.0
9.714816570281982,1721,0.0,30.0,4.0
9.724817752838135,1392,0.0,30.0,4.0
9.73482608795166,1701,0.0,30.0,4.0
9.744816541671753,1397,0.0,30.0,4.0
9.763148784637451,1840,0.0,30.0,4.0
9.773682117462158,1334,0.0,30.0,4.0
9.783840656280518,1885,0.0,30.0,4.0
9.7902512550354,1745,0.0,30.0,4.0
9.799235820770264,1939,0.0,30.0,4.0
9.808990240097046,1245,0.0,30.0,4.0
9.82375454902649,1938,0.0,30.0,4.0
9.824752807617188,1303,0.0,30.0,4.0
9.834762334823608,1467,0.0,30.0,4.0
9.844761848449707,1365,0.0,30.0,4.0
9.854763269424438,1819,0.0,30.0,4.0
9.86476182937622,1279,0.0,30.0,4.0
9.874761819839478,1647,0.0,30.0,4.0
9.884761571884155,1344,0.0,30.0,4.0
9.903708457946777,1692,0.0,30.0,4.0
9.913015604019165,1350,0.0,30.0,4.0
9.923026084899902,1453,0.0,30.0,4.0
9.933685541152954,1313,0.0,30.0,4.0
9.943694114685059,1447,0.0,30.0,4.0
9.953697919845581,1040,0.0,30.0,4.0
9.963717222213745,1089,0.0,30.0,4.0
9.974840879440308,1431,0.0,30.0,4.0
9.98318099975586,1314,0.0,30.0,4.0
9.991539239883423,1511,0.0,30.0,4.0
9.999547243118286,1328,0.0,30.0,4.0
10.006889343261719,1680,0.0,30.0,4.0
10.023852825164795,1534,0.0,30.0,4.0
10.02572250366211,1166,0.0,30.0,4.0
10.035737991333008,1168,0.0,30.0,4.0
10.04573917388916,1586,0.0,30.0,4.0
10.0557382106781,0,0.0,30.0,4.0
10.065741539001465,1445,0.0,30.0,4.0
10.075738191604614,0,0.0,30.0,4.0
10.0857412815094,0,0.0,30.0,4.0
10.102188110351562,4095,0.0,30.0,4.0
10.112192869186401,2335,0.0,30.0,4.0
10.123708486557007,4095,0.0,30.0,4.0
10.133721113204956,1971,0.0,30.0,4.0
10.143719911575317,4095,0.0,30.0,4.0
10.15372109413147,1648,0.0,30.0,4.0
10.163717985153198,4095,0.0,30.0,4.0
10.173717021942139,1415,0.0,30.0,4.0
10.184858798980713,4095,0.0,30.0,4.0
10.193397760391235,1710,0.0,30.0,4.0
10.195932388305664,4095,0.0,30.0,4.0
10.209302425384521,1585,0.0,30.0,4.0
10.223530292510986,4095,0.0,30.0,4.0
10.233559370040894,1124,0.0,30.0,4.0
10.241595029830933,2103,0.0,30.0,4.0
10.252578973770142,1749,0.0,30.0,4.0
10.263681888580322,1390,0.0,30.0,4.0
10.273716449737549,1936,0.0,30.0,4.0
10.283690214157104,1241,0.0,30.0,4.0
10.294141054153442,1815,0.0,30.0,4.0
10.29517149925232,1604,0.0,30.0,4.0
10.308599948883057,1296,0.0,30.0,4.0
10.319579362869263,555,0.0,30.0,4.0
10.329562187194824,1303,0.0,30.0,4.0
10.33956241607666,427,0.0,30.0,4.0
10.353709697723389,1318,0.0,30.0,4.0
10.36372184753418,419,0.0,30.0,4.0
10.373727321624756,1293,0.0,30.0,4.0
10.383722066879272,254,0.0,30.0,4.0
10.393832206726074,1267,0.0,30.0,4.0
10.403812646865845,98,0.0,30.0,4.0
10.408295392990112,1163,0.0,30.0,4.0
10.423484086990356,0,0.0,30.0,4.0
10.426236152648926,1108,0.0,30.0,4.0
10.44026231765747,10,0.0,30.0,4.0
10.45118236541748,1152,0.0,30.0,4.0
10.461174249649048,0,0.0,30.0,4.0
10.471174240112305,1095,0.0,30.0,4.0
10.48367977142334,0,0.0,30.0,4.0
10.493689060211182,1207,0.0,30.0,4.0
10.503692388534546,0,0.0,30.0,4.0
10.513692617416382,1115,0.0,30.0,4.0
10.52370023727417,0,0.0,30.0,4.0
10.533706903457642,1259,0.0,30.0,4.0
10.543710708618164,0,0.0,30.0,4.0
10.553688764572144,1019,0.0,30.0,4.0
10.5636887550354,0,0.0,30.0,4.0
10.570276737213135,1011,0.0,30.0,4.0
10.580286026000977,0,0.0,30.0,4.0
10.590286254882812,1274,0.0,30.0,4.0
10.600300788879395,0,0.0,30.0,4.0
10.613815546035767,912,0.0,30.0,4.0
10.62354564666748,0,0.0,30.0,4.0
10.633961915969849,1274,0.0,30.0,4.0
10.64306092262268,0,0.0,30.0,4.0
10.651088237762451,1013,0.0,30.0,4.0
10.656977415084839,0,0.0,30.0,4.0
10.673603773117065,1056,0.0,30.0,4.0
10.674601793289185,0,0.0,30.0,4.0
10.684612274169922,912,0.0,30.0,4.0
10.694611310958862,0,0.0,30.0,4.0
10.70461106300354,1226,0.0,30.0,4.0
10.714611053466797,0,0.0,30.0,4.0
10.72461223602295,944,0.0,30.0,4.0
10.73461127281189,0,0.0,30.0,4.0
10.744641780853271,1040,0.0,30.0,4.0
10.754628896713257,0,0.0,30.0,4.0
10.76461124420166,1250,0.0,30.0,4.0
10.775729179382324,0,0.0,30.0,4.0
10.785742282867432,1569,0.0,30.0,4.0
10.795741081237793,0,0.0,30.0,4.0
10.80574917793274,1473,0.0,30.0,4.0
10.823386430740356,0,0.0,30.0,4.0
10.829917192459106,1341,0.0,30.0,4.0
10.843673944473267,0,0.0,30.0,4.0
10.851763725280762,1367,0.0,30.0,4.0
10.85803484916687,0,0.0,30.0,4.0
10.873507738113403,1323,0.0,30.0,4.0
10.874528884887695,0,0.0,30.0,4.0
10.889912366867065,1273,0.0,30.0,4.0
10.900840759277344,0,0.0,30.0,4.0
10.910811424255371,870,0.0,30.0,4.0
10.920811414718628,0,0.0,30.0,4.0
10.933681964874268,469,0.0,30.0,4.0
10.943690776824951,0,0.0,30.0,4.0
10.953691005706787,249,0.0,30.0,4.0
10.963694334030151,0,0.0,30.0,4.0
10.973693609237671,2269,0.0,30.0,4.0
10.975492477416992,0,0.0,30.0,4.0
10.985501050949097,1386,0.0,30.0,4.0
10.995527267456055,0,0.0,30.0,4.0
11.005500078201294,766,0.0,30.0,4.0
11.015500783920288,0,0.0,30.0,4.0
11.033587455749512,847,0.0,30.0,4.0
11.041484117507935,0,0.0,30.0,4.0
11.050472497940063,511,0.0,30.0,4.0
11.05769157409668,0,0.0,30.0,4.0
11.073598384857178,1290,0.0,30.0,4.0
11.075464487075806,0,0.0,30.0,4.0
11.085478782653809,1137,0.0,30.0,4.0
11.095478773117065,0,0.0,30.0,4.0
11.105478525161743,803,0.0,30.0,4.0
11.115478515625,0,0.0,30.0,4.0
11.131642818450928,829,0.0,30.0,4.0
11.14164662361145,0,0.0,30.0,4.0
11.153708219528198,817,0.0,30.0,4.0
11.16372036933899,0,0.0,30.0,4.0
11.17371940612793,806,0.0,30.0,4.0
11.183718204498291,0,0.0,30.0,4.0
11.1937255859375,812,0.0,30.0,4.0
11.20371699333191,0,0.0,30.0,4.0
11.213720083236694,710,0.0,30.0,4.0
11.22372055053711,0,0.0,30.0,4.0
11.233792543411255,907,0.0,30.0,4.0
11.243308067321777,0,0.0,30.0,4.0
11.245718479156494,848,0.0,30.0,4.0
11.259088039398193,0,0.0,30.0,4.0
11.2732515335083,657,0.0,30.0,4.0
11.283430576324463,0,0.0,30.0,4.0
11.292503833770752,644,0.0,30.0,4.0
11.302516222000122,0,0.0,30.0,4.0
11.313687801361084,669,0.0,30.0,4.0
11.323697090148926,0,0.0,30.0,4.0
11.333820343017578,615,0.0,30.0,4.0
11.343306303024292,0,0.0,30.0,4.0
11.353450536727905,575,0.0,30.0,4.0
11.35958743095398,0,0.0,30.0,4.0
11.370737314224243,450,0.0,30.0,4.0
11.374945402145386,0,0.0,30.0,4.0
11.384953498840332,599,0.0,30.0,4.0
11.396349668502808,0,0.0,30.0,4.0
11.406364917755127,575,0.0,30.0,4.0
11.423362731933594,0,0.0,30.0,4.0
11.433386325836182,832,0.0,30.0,4.0
11.441867589950562,0,0.0,30.0,4.0
11.453320980072021,507,0.0,30.0,4.0
11.463053226470947,0,0.0,30.0,4.0
11.473202228546143,1872,0.0,30.0,4.0
11.475194931030273,0,0.0,30.0,4.0
11.491237878799438,399,0.0,30.0,4.0
11.499253273010254,0,0.0,30.0,4.0
11.50730848312378,367,0.0,30.0,4.0
11.519397258758545,0,0.0,30.0,4.0
11.529395818710327,358,0.0,30.0,4.0
11.53939437866211,0,0.0,30.0,4.0
11.549394845962524,542,0.0,30.0,4.0
11.559394359588623,0,0.0,30.0,4.0
11.56942105293274,370,0.0,30.0,4.0
11.579395532608032,0,0.0,30.0,4.0
11.589397668838501,401,0.0,30.0,4.0
11.603679656982422,0,0.0,30.0,4.0
11.613697528839111,142,0.0,30.0,4.0
11.62369680404663,0,0.0,30.0,4.0
11.62403655052185,1347,0.0,30.0,4.0
11.641337156295776,0,0.0,30.0,4.0
11.65134072303772,630,0.0,30.0,4.0
11.663130521774292,0,0.0,30.0,4.0
11.673473119735718,861,0.0,30.0,4.0
11.677350997924805,0,0.0,30.0,4.0
11.692957878112793,978,0.0,30.0,4.0
11.700966596603394,0,0.0,30.0,4.0
11.70757508277893,838,0.0,30.0,4.0
11.723315954208374,0,0.0,30.0,4.0
11.724315166473389,910,0.0,30.0,4.0
11.734325647354126,0,0.0,30.0,4.0
11.744326829910278,592,0.0,30.0,4.0
11.754326820373535,0,0.0,30.0,4.0
11.764325618743896,431,0.0,30.0,4.0
11.774325609207153,0,0.0,30.0,4.0
11.784326791763306,846,0.0,30.0,4.0
11.795388460159302,0,0.0,30.0,4.0
11.813703298568726,832,0.0,30.0,4.0
11.823702096939087,0,0.0,30.0,4.0
11.833725452423096,747,0.0,30.0,4.0
11.843714237213135,0,0.0,30.0,4.0
11.853709936141968,525,0.0,30.0,4.0
11.863707542419434,0,0.0,30.0,4.0
11.866284132003784,401,0.0,30.0,4.0
11.883746147155762,0,0.0,30.0,4.0
11.892183303833008,896,0.0,30.0,4.0
11.902336835861206,0,0.0,30.0,4.0
11.907526969909668,396,0.0,30.0,4.0
11.923521280288696,0,0.0,30.0,4.0
11.925297975540161,394,0.0,30.0,4.0
11.935314416885376,0,0.0,30.0,4.0
11.945314407348633,399,0.0,30.0,4.0
11.955319881439209,0,0.0,30.0,4.0
11.96531367301941,289,0.0,30.0,4.0
11.975313425064087,0,0.0,30.0,4.0
11.985313415527344,755,0.0,30.0,4.0
11.996537208557129,0,0.0,30.0,4.0
12.013710737228394,355,0.0,30.0,4.0
12.023709535598755,0,0.0,30.0,4.0
12.033722877502441,735,0.0,30.0,4.0
12.043723106384277,0,0.0,30.0,4.0
12.053722858428955,752,0.0,30.0,4.0
12.063721895217896,0,0.0,30.0,4.0
12.0739426612854,661,0.0,30.0,4.0
12.074939966201782,0,0.0,30.0,4.0
12.084957838058472,752,0.0,30.0,4.0
12.097900867462158,0,0.0,30.0,4.0
12.110918998718262,640,0.0,30.0,4.0
12.123128175735474,0,0.0,30.0,4.0
12.13348913192749,218,0.0,30.0,4.0
12.140959978103638,0,0.0,30.0,4.0
12.152592182159424,228,0.0,30.0,4.0
12.163729190826416,0,0.0,30.0,4.0
12.17373013496399,612,0.0,30.0,4.0
12.183749198913574,0,0.0,30.0,4.0
12.193730115890503,544,0.0,30.0,4.0
12.203731298446655,0,0.0,30.0,4.0
12.213732242584229,596,0.0,30.0,4.0
12.223736763000488,0,0.0,30.0,4.0
12.233727216720581,593,0.0,30.0,4.0
12.243730306625366,0,0.0,30.0,4.0
12.253729104995728,579,0.0,30.0,4.0
12.263731241226196,731,0.0,30.0,4.0
12.273730039596558,1810,0.0,30.0,4.0
12.283730745315552,2441,0.0,30.0,4.0
12.293731451034546,1851,0.0,30.0,4.0
12.303934812545776,548,0.0,30.0,4.0
12.304918050765991,1287,0.0,30.0,4.0
12.323155879974365,0,0.0,30.0,4.0
12.327998876571655,1184,0.0,30.0,4.0
12.34221863746643,0,0.0,30.0,4.0
12.350231885910034,1257,0.0,30.0,4.0
12.357755422592163,0,0.0,30.0,4.0
12.373241424560547,1107,0.0,30.0,4.0
12.375317096710205,0,0.0,30.0,4.0
12.385324001312256,960,0.0,30.0,4.0
12.395324230194092,0,0.0,30.0,4.0
12.405324459075928,927,0.0,30.0,4.0
12.415324211120605,0,0.0,30.0,4.0
12.425324201583862,816,0.0,30.0,4.0
12.435324430465698,0,0.0,30.0,4.0
12.445324182510376,714,0.0,30.0,4.0
12.455324172973633,0,0.0,30.0,4.0
12.465356826782227,550,0.0,30.0,4.0
12.476449251174927,0,0.0,30.0,4.0
12.486446857452393,582,0.0,30.0,4.0
12.49644660949707,0,0.0,30.0,4.0
12.506446838378906,644,0.0,30.0,4.0
12.516447305679321,0,0.0,30.0,4.0
12.53042483329773,626,0.0,30.0,4.0
12.542288780212402,0,0.0,30.0,4.0
12.550304412841797,442,0.0,30.0,4.0
12.560004711151123,0,0.0,30.0,4.0
12.573086738586426,331,0.0,30.0,4.0
12.575061082839966,0,0.0,30.0,4.0
12.585078954696655,306,0.0,30.0,4.0
12.595078468322754,0,0.0,30.0,4.0
12.605078935623169,186,0.0,30.0,4.0
12.61507797241211,0,0.0,30.0,4.0
12.625077962875366,382,0.0,30.0,4.0
12.635078191757202,0,0.0,30.0,4.0
12.645081281661987,304,0.0,30.0,4.0
12.655087232589722,0,0.0,30.0,4.0
12.671066045761108,354,0.0,30.0,4.0
12.683707237243652,0,0.0,30.0,4.0
12.693719863891602,368,0.0,30.0,4.0
12.703719139099121,0,0.0,30.0,4.0
12.713719367980957,291,0.0,30.0,4.0
12.723719835281372,0,0.0,30.0,4.0
12.733903646469116,299,0.0,30.0,4.0
12.743626594543457,0,0.0,30.0,4.0
12.749046802520752,244,0.0,30.0,4.0
12.758832931518555,0,0.0,30.0,4.0
12.772972583770752,209,0.0,30.0,4.0
12.782971382141113,0,0.0,30.0,4.0
12.792011022567749,320,0.0,30.0,4.0
12.802022457122803,0,0.0,30.0,4.0
12.812021255493164,20,0.0,30.0,4.0
12.823282241821289,0,0.0,30.0,4.0
12.833325147628784,97,0.0,30.0,4.0
12.843391418457031,0,0.0,30.0,4.0
12.844387531280518,188,0.0,30.0,4.0
12.854394674301147,0,0.0,30.0,4.0
12.864395141601562,197,0.0,30.0,4.0
12.874416589736938,0,0.0,30.0,4.0
12.884395360946655,470,0.0,30.0,4.0
12.894394636154175,0,0.0,30.0,4.0
12.906593322753906,145,0.0,30.0,4.0
12.916606187820435,0,0.0,30.0,4.0
12.926605701446533,160,0.0,30.0,4.0
12.940971612930298,0,0.0,30.0,4.0
12.946113348007202,112,0.0,30.0,4.0
12.958294868469238,0,0.0,30.0,4.0
12.972991466522217,162,0.0,30.0,4.0
12.983264446258545,0,0.0,30.0,4.0
12.990989923477173,475,0.0,30.0,4.0
12.999003410339355,0,0.0,30.0,4.0
13.00803518295288,128,0.0,30.0,4.0
13.018046379089355,4095,0.0,30.0,4.0
13.028045892715454,33,0.0,30.0,4.0
13.038045167922974,0,0.0,30.0,4.0
13.04804539680481,366,0.0,30.0,4.0
13.058045864105225,0,0.0,30.0,4.0
13.068044900894165,14,0.0,30.0,4.0
13.079154014587402,0,0.0,30.0,4.0
13.093726634979248,0,0.0,30.0,4.0
13.103746891021729,0,0.0,30.0,4.0
13.113738775253296,1,0.0,30.0,4.0
13.123736381530762,0,0.0,30.0,4.0
13.133735418319702,69,0.0,30.0,4.0
13.14373517036438,0,0.0,30.0,4.0
13.153824806213379,0,0.0,30.0,4.0
13.163434982299805,0,0.0,30.0,4.0
13.173495531082153,0,0.0,30.0,4.0
13.179694414138794,0,0.0,30.0,4.0
13.19377613067627,218,0.0,30.0,4.0
13.20178508758545,0,0.0,30.0,4.0
13.2083420753479,179,0.0,30.0,4.0
13.224056005477905,0,0.0,30.0,4.0
13.234172582626343,137,0.0,30.0,4.0
13.234172582626343,0,0.0,30.0,4.0
13.254077434539795,229,0.0,30.0,4.0
13.254077434539795,0,0.0,30.0,4.0
13.274077415466309,345,0.0,30.0,4.0
13.274077415466309,0,0.0,30.0,4.0
13.294106245040894,274,0.0,30.0,4.0
13.294106245040894,0,0.0,30.0,4.0
13.304075002670288,91,0.0,30.0,4.0
13.314077615737915,0,0.0,30.0,4.0
13.324291706085205,322,0.0,30.0,4.0
13.335203409194946,0,0.0,30.0,4.0
13.345200300216675,371,0.0,30.0,4.0
13.362116813659668,0,0.0,30.0,4.0
13.372827291488647,226,0.0,30.0,4.0
13.380827188491821,0,0.0,30.0,4.0
13.394574403762817,209,0.0,30.0,4.0
13.398239612579346,0,0.0,30.0,4.0
13.40648603439331,0,0.0,30.0,4.0
13.423896074295044,0,0.0,30.0,4.0
13.433907985687256,25,0.0,30.0,4.0
13.433907985687256,0,0.0,30.0,4.0
13.45390796661377,17,0.0,30.0,4.0
13.45390796661377,0,0.0,30.0,4.0
13.473907947540283,51,0.0,30.0,4.0
13.473907947540283,0,0.0,30.0,4.0
13.493908166885376,22,0.0,30.0,4.0
13.493908166885376,0,0.0,30.0,4.0
13.503908157348633,0,0.0,30.0,4.0
13.51390814781189,0,0.0,30.0,4.0
13.533908367156982,243,0.0,30.0,4.0
13.533908367156982,0,0.0,30.0,4.0
13.553908109664917,212,0.0,30.0,4.0
13.553908109664917,0,0.0,30.0,4.0
13.574002027511597,306,0.0,30.0,4.0
13.583576440811157,0,0.0,30.0,4.0
13.593701601028442,0,0.0,30.0,4.0
13.60172414779663,0,0.0,30.0,4.0
13.606201171875,205,0.0,30.0,4.0
13.623873710632324,0,0.0,30.0,4.0
13.624861478805542,0,0.0,30.0,4.0
13.63487696647644,0,0.0,30.0,4.0
13.644877195358276,0,0.0,30.0,4.0
13.654876947402954,0,0.0,30.0,4.0
13.66487717628479,0,0.0,30.0,4.0
13.674877166748047,0,0.0,30.0,4.0
13.692018747329712,0,0.0,30.0,4.0
13.703705787658691,0,0.0,30.0,4.0
13.713716983795166,0,0.0,30.0,4.0
13.723729610443115,0,0.0,30.0,4.0
13.733705043792725,0,0.0,30.0,4.0
13.743717670440674,0,0.0,30.0,4.0
13.753717184066772,0,0.0,30.0,4.0
13.763705253601074,0,0.0,30.0,4.0
13.773720502853394,329,0.0,30.0,4.0
13.783883333206177,0,0.0,30.0,4.0
13.793141603469849,501,0.0,30.0,4.0
13.798841953277588,0,0.0,30.0,4.0
13.809809923171997,574,0.0,30.0,4.0
13.823194980621338,0,0.0,30.0,4.0
13.832178115844727,569,0.0,30.0,4.0
13.840179681777954,0,0.0,30.0,4.0
13.848219394683838,534,0.0,30.0,4.0
13.858221054077148,0,0.0,30.0,4.0
13.868244886398315,478,0.0,30.0,4.0
13.880661964416504,0,0.0,30.0,4.0
13.893706321716309,399,0.0,30.0,4.0
13.903717756271362,0,0.0,30.0,4.0
13.913718700408936,400,0.0,30.0,4.0
13.915455102920532,0,0.0,30.0,4.0
13.925481796264648,304,0.0,30.0,4.0
13.935461521148682,0,0.0,30.0,4.0
13.94546127319336,231,0.0,30.0,4.0
13.955469369888306,0,0.0,30.0,4.0
13.965461254119873,242,0.0,30.0,4.0
13.975461483001709,0,0.0,30.0,4.0
13.985462665557861,176,0.0,30.0,4.0
13.999029636383057,0,0.0,30.0,4.0
14.013495206832886,101,0.0,30.0,4.0
14.022928714752197,0,0.0,30.0,4.0
14.025975942611694,66,0.0,30.0,4.0
14.040737867355347,0,0.0,30.0,4.0
14.048745155334473,63,0.0,30.0,4.0
14.057809591293335,0,0.0,30.0,4.0
14.067816734313965,40,0.0,30.0,4.0
14.0778169631958,0,0.0,30.0,4.0
14.087940216064453,15,0.0,30.0,4.0
14.098929405212402,0,0.0,30.0,4.0
14.113675832748413,0,0.0,30.0,4.0
14.123689651489258,0,0.0,30.0,4.0
14.133687496185303,0,0.0,30.0,4.0
14.143687725067139,0,0.0,30.0,4.0
14.153688430786133,0,0.0,30.0,4.0
14.163689136505127,0,0.0,30.0,4.0
14.173688173294067,7,0.0,30.0,4.0
14.183688879013062,2320,0.0,30.0,4.0
14.193798542022705,39,0.0,30.0,4.0
14.20002794265747,882,0.0,30.0,4.0
14.21370267868042,0,0.0,30.0,4.0
14.223723649978638,717,0.0,30.0,4.0
14.233747959136963,0,0.0,30.0,4.0
14.243703126907349,1023,0.0,30.0,4.0
14.251713275909424,0,0.0,30.0,4.0
14.257079362869263,1225,0.0,30.0,4.0
14.27367877960205,0,0.0,30.0,4.0
14.283692836761475,1552,0.0,30.0,4.0
14.293691158294678,0,0.0,30.0,4.0
14.304234266281128,1865,0.0,30.0,4.0
14.304234266281128,0,0.0,30.0,4.0
14.314235925674438,2016,0.0,30.0,4.0
14.324236154556274,0,0.0,30.0,4.0
14.334235906600952,945,0.0,30.0,4.0
14.34424090385437,0,0.0,30.0,4.0
14.354235887527466,896,0.0,30.0,4.0
14.364236116409302,0,0.0,30.0,4.0
14.374259948730469,1497,0.0,30.0,4.0
14.384235858917236,0,0.0,30.0,4.0
14.394263744354248,1109,0.0,30.0,4.0
14.404237031936646,0,0.0,30.0,4.0
14.42284369468689,1044,0.0,30.0,4.0
14.430930852890015,0,0.0,30.0,4.0
14.442407369613647,1855,0.0,30.0,4.0
14.450414657592773,0,0.0,30.0,4.0
14.456507682800293,4095,0.0,30.0,4.0
14.473636150360107,0,0.0,30.0,4.0
14.475563764572144,4095,0.0,30.0,4.0
14.492238521575928,0,0.0,30.0,4.0
14.50351595878601,4095,0.0,30.0,4.0
14.510593891143799,0,0.0,30.0,4.0
14.518842697143555,4095,0.0,30.0,4.0
14.528996706008911,0,0.0,30.0,4.0
14.538992881774902,4095,0.0,30.0,4.0
14.553016424179077,0,0.0,30.0,4.0
14.56381607055664,4095,0.0,30.0,4.0
14.573826551437378,0,0.0,30.0,4.0
14.583827018737793,3710,0.0,30.0,4.0
14.59382700920105,0,0.0,30.0,4.0
14.603826761245728,3663,0.0,30.0,4.0
14.613826990127563,0,0.0,30.0,4.0
14.62382960319519,2694,0.0,30.0,4.0
14.633911609649658,0,0.0,30.0,4.0
14.640389442443848,4095,0.0,30.0,4.0
14.650494575500488,0,0.0,30.0,4.0
14.65837049484253,2886,0.0,30.0,4.0
14.672941207885742,0,0.0,30.0,4.0
14.681934833526611,2059,0.0,30.0,4.0
14.689934968948364,0,0.0,30.0,4.0
14.697988986968994,749,0.0,30.0,4.0
14.711239337921143,0,0.0,30.0,4.0
14.714369058609009,658,0.0,30.0,4.0
14.724372863769531,0,0.0,30.0,4.0
14.734372854232788,744,0.0,30.0,4.0
14.744373559951782,0,0.0,30.0,4.0
14.76367998123169,569,0.0,30.0,4.0
14.773692846298218,0,0.0,30.0,4.0
14.78368878364563,0,0.0,30.0,4.0
14.793692350387573,144,0.0,30.0,4.0
14.80369234085083,0,0.0,30.0,4.0
14.81368899345398,0,0.0,30.0,4.0
14.823688745498657,0,0.0,30.0,4.0
14.833818912506104,0,0.0,30.0,4.0
14.834815740585327,0,0.0,30.0,4.0
14.852947473526001,0,0.0,30.0,4.0
14.8586106300354,0,0.0,30.0,4.0
14.873619794845581,187,0.0,30.0,4.0
14.882661819458008,0,0.0,30.0,4.0
14.89028549194336,0,0.0,30.0,4.0
14.90033507347107,0,0.0,30.0,4.0
14.910333633422852,64,0.0,30.0,4.0
14.920337677001953,0,0.0,30.0,4.0
14.930337190628052,190,0.0,30.0,4.0
14.94033408164978,0,0.0,30.0,4.0
14.950333833694458,432,0.0,30.0,4.0
14.960333585739136,405,0.0,30.0,4.0
14.97371530532837,503,0.0,30.0,4.0
14.983727216720581,0,0.0,30.0,4.0
14.993727684020996,885,0.0,30.0,4.0
15.003726482391357,16,0.0,30.0,4.0
15.01372766494751,3659,0.0,30.0,4.0
15.023727655410767,16,0.0,30.0,4.0
15.033727884292603,4095,0.0,30.0,4.0
15.043723583221436,119,0.0,30.0,4.0
15.053728103637695,4095,0.0,30.0,4.0
15.063855648040771,193,0.0,30.0,4.0
15.073730945587158,4095,0.0,30.0,4.0
15.080789804458618,530,0.0,30.0,4.0
15.092928171157837,4095,0.0,30.0,4.0
15.100934743881226,796,0.0,30.0,4.0
15.107218980789185,4095,0.0,30.0,4.0
15.123528718948364,933,0.0,30.0,4.0
15.125518083572388,4095,0.0,30.0,4.0
15.143707513809204,1019,0.0,30.0,4.0
15.153719902038574,4095,0.0,30.0,4.0
15.163719415664673,1065,0.0,30.0,4.0
15.173730850219727,4095,0.0,30.0,4.0
15.183718919754028,1054,0.0,30.0,4.0
15.193722248077393,4095,0.0,30.0,4.0
15.20368218421936,1101,0.0,30.0,4.0
15.213401079177856,4095,0.0,30.0,4.0
15.224005222320557,989,0.0,30.0,4.0
15.229847192764282,4095,0.0,30.0,4.0
15.239850997924805,933,0.0,30.0,4.0
15.24985146522522,4095,0.0,30.0,4.0
15.259852409362793,806,0.0,30.0,4.0
15.269851207733154,4095,0.0,30.0,4.0
15.282895803451538,1648,0.0,30.0,4.0
15.293198347091675,4095,0.0,30.0,4.0
15.29980993270874,1559,0.0,30.0,4.0
15.30689024925232,4095,0.0,30.0,4.0
15.323932647705078,1475,0.0,30.0,4.0
15.332064628601074,4095,0.0,30.0,4.0
15.340130090713501,1479,0.0,30.0,4.0
15.353681564331055,4095,0.0,30.0,4.0
15.363693952560425,1345,0.0,30.0,4.0
15.373690128326416,4095,0.0,30.0,4.0
15.383699893951416,1339,0.0,30.0,4.0
15.393693685531616,4095,0.0,30.0,4.0
15.403716802597046,1606,0.0,30.0,4.0
15.413694143295288,4095,0.0,30.0,4.0
15.423695802688599,1847,0.0,30.0,4.0
15.433694124221802,4095,0.0,30.0,4.0
15.443681955337524,1671,0.0,30.0,4.0
15.453693866729736,4095,0.0,30.0,4.0
15.463693857192993,1584,0.0,30.0,4.0
15.473690509796143,4095,0.0,30.0,4.0
15.483693838119507,1373,0.0,30.0,4.0
15.493946313858032,4095,0.0,30.0,4.0
15.503780841827393,1073,0.0,30.0,4.0
15.508836030960083,4095,0.0,30.0,4.0
15.523680925369263,959,0.0,30.0,4.0
15.531694173812866,4095,0.0,30.0,4.0
15.541154861450195,867,0.0,30.0,4.0
15.551167488098145,4095,0.0,30.0,4.0
15.561165809631348,549,0.0,30.0,4.0
15.57341194152832,4095,0.0,30.0,4.0
15.583459377288818,502,0.0,30.0,4.0
15.593442916870117,4095,0.0,30.0,4.0
15.603468894958496,534,0.0,30.0,4.0
15.613459348678589,4095,0.0,30.0,4.0
15.623461723327637,487,0.0,30.0,4.0
15.633452892303467,4095,0.0,30.0,4.0
15.643456935882568,356,0.0,30.0,4.0
15.6534423828125,4095,0.0,30.0,4.0
15.663442373275757,133,0.0,30.0,4.0
15.67352032661438,4095,0.0,30.0,4.0
15.674517154693604,0,0.0,30.0,4.0
15.684536933898926,4095,0.0,30.0,4.0
15.69452691078186,0,0.0,30.0,4.0
15.713560581207275,4095,0.0,30.0,4.0
15.72278642654419,112,0.0,30.0,4.0
15.731788396835327,4095,0.0,30.0,4.0
15.742897272109985,307,0.0,30.0,4.0
15.753987073898315,4095,0.0,30.0,4.0
15.757688760757446,330,0.0,30.0,4.0
15.767704486846924,4095,0.0,30.0,4.0
15.78368091583252,125,0.0,30.0,4.0
15.793689489364624,4095,0.0,30.0,4.0
15.803693056106567,0,0.0,30.0,4.0
15.813870429992676,4095,0.0,30.0,4.0
15.814865589141846,0,0.0,30.0,4.0
15.833855390548706,4095,0.0,30.0,4.0
15.833855390548706,0,0.0,30.0,4.0
15.853884935379028,4095,0.0,30.0,4.0
15.863885164260864,0,0.0,30.0,4.0
15.865047931671143,4095,0.0,30.0,4.0
15.875067710876465,0,0.0,30.0,4.0
15.893059253692627,4095,0.0,30.0,4.0
15.894058465957642,0,0.0,30.0,4.0
15.904064893722534,4095,0.0,30.0,4.0
15.923759460449219,0,0.0,30.0,4.0
15.934020519256592,4095,0.0,30.0,4.0
15.943864107131958,4095,0.0,30.0,4.0
15.953889846801758,4095,0.0,30.0,4.0
15.956762552261353,4095,0.0,30.0,4.0
15.966772556304932,4095,0.0,30.0,4.0
15.983850002288818,1293,0.0,30.0,4.0
15.993884086608887,4095,0.0,30.0,4.0
15.993884086608887,0,0.0,30.0,4.0
16.0138840675354,4095,0.0,30.0,4.0
16.023884057998657,501,0.0,30.0,4.0
16.03383231163025,4095,0.0,30.0,4.0
16.04386258125305,496,0.0,30.0,4.0
16.053862810134888,4095,0.0,30.0,4.0
16.063863039016724,405,0.0,30.0,4.0
16.073047399520874,4095,0.0,30.0,4.0
16.083877325057983,1423,0.0,30.0,4.0
16.093889474868774,4095,0.0,30.0,4.0
16.10383629798889,1213,0.0,30.0,4.0
16.113033294677734,4095,0.0,30.0,4.0
16.114031076431274,921,0.0,30.0,4.0
16.133457899093628,4095,0.0,30.0,4.0
16.143859386444092,896,0.0,30.0,4.0
16.153983116149902,4095,0.0,30.0,4.0
16.15671992301941,405,0.0,30.0,4.0
16.173502445220947,4095,0.0,30.0,4.0
16.1838698387146,240,0.0,30.0,4.0
16.19303560256958,4095,0.0,30.0,4.0
16.194039344787598,878,0.0,30.0,4.0
16.213830947875977,4095,0.0,30.0,4.0
16.223026990890503,424,0.0,30.0,4.0
16.23300790786743,4095,0.0,30.0,4.0
16.243025302886963,259,0.0,30.0,4.0
16.253430128097534,4095,0.0,30.0,4.0
16.263901472091675,499,0.0,30.0,4.0
16.273878812789917,4095,0.0,30.0,4.0
16.2838294506073,528,0.0,30.0,4.0
16.293026447296143,4095,0.0,30.0,4.0
16.303860664367676,455,0.0,30.0,4.0
16.313868284225464,4095,0.0,30.0,4.0
16.32302975654602,336,0.0,30.0,4.0
16.33303737640381,4095,0.0,30.0,4.0
16.343704223632812,12,0.0,30.0,4.0
16.345073699951172,4095,0.0,30.0,4.0
16.35817313194275,117,0.0,30.0,4.0
16.37367558479309,4095,0.0,30.0,4.0
16.382602214813232,0,0.0,30.0,4.0
16.393949508666992,4095,0.0,30.0,4.0
16.393949508666992,0,0.0,30.0,4.0
16.414077281951904,4095,0.0,30.0,4.0
16.414077281951904,0,0.0,30.0,4.0
16.43403911590576,4095,0.0,30.0,4.0
16.435028553009033,0,0.0,30.0,4.0
16.45323896408081,4095,0.0,30.0,4.0
16.463056802749634,128,0.0,30.0,4.0
16.47304081916809,4095,0.0,30.0,4.0
16.483843088150024,220,0.0,30.0,4.0
16.493005514144897,4095,0.0,30.0,4.0
16.503880262374878,262,0.0,30.0,4.0
16.51300811767578,4095,0.0,30.0,4.0
16.514007806777954,212,0.0,30.0,4.0
16.533055782318115,4095,0.0,30.0,4.0
16.543819904327393,178,0.0,30.0,4.0
16.553003072738647,4095,0.0,30.0,4.0
16.563063144683838,214,0.0,30.0,4.0
16.573664903640747,4095,0.0,30.0,4.0
16.582650423049927,262,0.0,30.0,4.0
16.593857526779175,4095,0.0,30.0,4.0
16.603999614715576,255,0.0,30.0,4.0
16.613075971603394,4095,0.0,30.0,4.0
16.624046325683594,254,0.0,30.0,4.0
16.634008407592773,4095,0.0,30.0,4.0
16.643176317214966,41,0.0,30.0,4.0
16.654038190841675,4095,0.0,30.0,4.0
16.654038190841675,0,0.0,30.0,4.0
16.67407727241516,4095,0.0,30.0,4.0
16.67407727241516,0,0.0,30.0,4.0
16.694045305252075,4095,0.0,30.0,4.0
16.694045305252075,0,0.0,30.0,4.0
16.71304154396057,4095,0.0,30.0,4.0
16.72304058074951,1001,0.0,30.0,4.0
16.733056783676147,4095,0.0,30.0,4.0
16.743003129959106,4095,0.0,30.0,4.0
16.75300407409668,4095,0.0,30.0,4.0
16.763864040374756,4095,0.0,30.0,4.0
16.773794174194336,4095,0.0,30.0,4.0
16.78304934501648,4095,0.0,30.0,4.0
16.79198431968689,4095,0.0,30.0,4.0
16.803009510040283,4095,0.0,30.0,4.0
16.813015460968018,4095,0.0,30.0,4.0
16.823102712631226,4095,0.0,30.0,4.0
16.833035707473755,4095,0.0,30.0,4.0
16.84298801422119,4095,0.0,30.0,4.0
16.85301113128662,4095,0.0,30.0,4.0
16.862980365753174,4095,0.0,30.0,4.0
16.873040437698364,4095,0.0,30.0,4.0
16.882975339889526,4095,0.0,30.0,4.0
16.893000841140747,4095,0.0,30.0,4.0
16.903013229370117,4095,0.0,30.0,4.0
16.91300129890442,4095,0.0,30.0,4.0
16.923003435134888,4095,0.0,30.0,4.0
16.93302083015442,4095,0.0,30.0,4.0
16.94300675392151,4095,0.0,30.0,4.0
16.952976942062378,4095,0.0,30.0,4.0
16.96300196647644,4095,0.0,30.0,4.0
16.972975969314575,4095,0.0,30.0,4.0
16.982056617736816,4095,0.0,30.0,4.0
16.992656707763672,4095,0.0,30.0,4.0
17.0030038356781,4095,0.0,30.0,4.0
17.013836145401,4095,0.0,30.0,4.0
17.02332901954651,4095,0.0,30.0,4.0
17.033007860183716,4095,0.0,30.0,4.0
17.04303550720215,4095,0.0,30.0,4.0
17.05398154258728,4095,0.0,30.0,4.0
17.062997817993164,4095,0.0,30.0,4.0
17.07301926612854,4095,0.0,30.0,4.0
17.083016872406006,4095,0.0,30.0,4.0
17.092979431152344,4095,0.0,30.0,4.0
17.103001594543457,4095,0.0,30.0,4.0
17.113008975982666,4095,0.0,30.0,4.0
17.12299942970276,4095,0.0,30.0,4.0
17.132978916168213,4095,0.0,30.0,4.0
17.1430025100708,4095,0.0,30.0,4.0
17.153980016708374,4095,0.0,30.0,4.0
17.162999868392944,4095,0.0,30.0,4.0
17.172971725463867,4095,0.0,30.0,4.0
17.183013677597046,4095,0.0,30.0,4.0
17.19324231147766,4095,0.0,30.0,4.0
17.202977657318115,4095,0.0,30.0,4.0
17.213894844055176,4095,0.0,30.0,4.0
17.22324252128601,4095,0.0,30.0,4.0
17.2329523563385,4095,0.0,30.0,4.0
17.24301266670227,4095,0.0,30.0,4.0
17.252949476242065,4095,0.0,30.0,4.0
17.26297640800476,4095,0.0,30.0,4.0
17.273974657058716,4095,0.0,30.0,4.0
17.283291816711426,4095,0.0,30.0,4.0
17.28962802886963,4095,0.0,30.0,4.0
17.30302143096924,4095,0.0,30.0,4.0
17.31299901008606,4095,0.0,30.0,4.0
17.322973489761353,4095,0.0,30.0,4.0
17.333012342453003,4095,0.0,30.0,4.0
17.342976331710815,4095,0.0,30.0,4.0
17.352972745895386,4095,0.0,30.0,4.0
17.36294913291931,4095,0.0,30.0,4.0
17.37297558784485,4095,0.0,30.0,4.0
17.38298487663269,4095,0.0,30.0,4.0
17.392972707748413,4095,0.0,30.0,4.0
17.40293860435486,4095,0.0,30.0,4.0
17.412991285324097,4095,0.0,30.0,4.0
17.423126220703125,4095,0.0,30.0,4.0
17.433916330337524,4095,0.0,30.0,4.0
17.44299817085266,4095,0.0,30.0,4.0
17.45395803451538,4095,0.0,30.0,4.0
17.46297311782837,4095,0.0,30.0,4.0
17.47298574447632,4095,0.0,30.0,4.0
17.48297381401062,4095,0.0,30.0,4.0
17.49294948577881,4095,0.0,30.0,4.0
17.503018617630005,4095,0.0,30.0,4.0
17.512972831726074,4095,0.0,30.0,4.0
17.52297830581665,4095,0.0,30.0,4.0
17.532971143722534,4095,0.0,30.0,4.0
17.54297637939453,4095,0.0,30.0,4.0
17.55295157432556,4095,0.0,30.0,4.0
17.563971042633057,4095,0.0,30.0,4.0
17.572949647903442,4095,0.0,30.0,4.0
17.582955837249756,4095,0.0,30.0,4.0
17.583953380584717,4095,0.0,30.0,4.0
17.603636503219604,4095,0.0,30.0,4.0
17.612966537475586,4095,0.0,30.0,4.0
17.62307906150818,4095,0.0,30.0,4.0
17.63302445411682,4095,0.0,30.0,4.0
17.64298939704895,4095,0.0,30.0,4.0
17.653942584991455,4095,0.0,30.0,4.0
17.662981271743774,4095,0.0,30.0,4.0
17.672951698303223,4095,0.0,30.0,4.0
17.6830096244812,4095,0.0,30.0,4.0
17.693947553634644,4095,0.0,30.0,4.0
17.70294976234436,4095,0.0,30.0,4.0
17.713950157165527,4095,0.0,30.0,4.0
17.722973346710205,4095,0.0,30.0,4.0
17.73298692703247,4095,0.0,30.0,4.0
17.74294376373291,4095,0.0,30.0,4.0
17.752947330474854,4095,0.0,30.0,4.0
17.762956857681274,4095,0.0,30.0,4.0
17.7729754447937,4095,0.0,30.0,4.0
17.773972272872925,4095,0.0,30.0,4.0
17.792953491210938,4095,0.0,30.0,4.0
17.80297064781189,4095,0.0,30.0,4.0
17.812949657440186,4095,0.0,30.0,4.0
17.823028564453125,4095,0.0,30.0,4.0
17.83392596244812,4095,0.0,30.0,4.0
17.842936754226685,4095,0.0,30.0,4.0
17.85394859313965,4095,0.0,30.0,4.0
17.857388973236084,4095,0.0,30.0,4.0
17.873945474624634,4095,0.0,30.0,4.0
17.882944107055664,4095,0.0,30.0,4.0
17.892956972122192,4095,0.0,30.0,4.0
17.90295386314392,4095,0.0,30.0,4.0
17.91300678253174,4095,0.0,30.0,4.0
17.92393732070923,4095,0.0,30.0,4.0
17.93294072151184,4095,0.0,30.0,4.0
17.943939685821533,4095,0.0,30.0,4.0
17.95294713973999,4095,0.0,30.0,4.0
17.962952852249146,4095,0.0,30.0,4.0
17.972957611083984,4095,0.0,30.0,4.0
17.983951091766357,4095,0.0,30.0,4.0
17.992947101593018,4095,0.0,30.0,4.0
18.002948760986328,4095,0.0,30.0,4.0
18.01295828819275,4095,0.0,30.0,4.0
18.022941827774048,4095,0.0,30.0,4.0
18.033751487731934,4095,0.0,30.0,4.0
18.043927669525146,4095,0.0,30.0,4.0
18.053940057754517,4095,0.0,30.0,4.0
18.06300687789917,4095,0.0,30.0,4.0
18.072986125946045,4095,0.0,30.0,4.0
18.073985815048218,4095,0.0,30.0,4.0
18.09298849105835,4095,0.0,30.0,4.0
18.10294270515442,4095,0.0,30.0,4.0
18.11295199394226,4095,0.0,30.0,4.0
18.122989416122437,4095,0.0,30.0,4.0
18.132943868637085,4095,0.0,30.0,4.0
18.142943143844604,4095,0.0,30.0,4.0
18.15296244621277,4095,0.0,30.0,4.0
18.16294813156128,4095,0.0,30.0,4.0
18.172952890396118,4095,0.0,30.0,4.0
18.18296241760254,4095,0.0,30.0,4.0
18.19294309616089,4095,0.0,30.0,4.0
18.203943252563477,4095,0.0,30.0,4.0
18.212944269180298,4095,0.0,30.0,4.0
18.223942279815674,4095,0.0,30.0,4.0
18.23294711112976,4095,0.0,30.0,4.0
18.243597745895386,4095,0.0,30.0,4.0
18.252973318099976,4095,0.0,30.0,4.0
18.257797241210938,4095,0.0,30.0,4.0
18.27370285987854,4095,0.0,30.0,4.0
18.283934116363525,4095,0.0,30.0,4.0
18.292958736419678,4095,0.0,30.0,4.0
18.303503274917603,4095,0.0,30.0,4.0
18.31393313407898,4095,0.0,30.0,4.0
18.323949813842773,4095,0.0,30.0,4.0
18.33312225341797,4095,0.0,30.0,4.0
18.343921422958374,4095,0.0,30.0,4.0
18.353941679000854,4095,0.0,30.0,4.0
18.362947702407837,4095,0.0,30.0,4.0
18.373916149139404,4095,0.0,30.0,4.0
18.383952140808105,4095,0.0,30.0,4.0
18.392939805984497,4095,0.0,30.0,4.0
18.402944087982178,4095,0.0,30.0,4.0
18.413936376571655,4095,0.0,30.0,4.0
18.423915147781372,4095,0.0,30.0,4.0
18.43294882774353,4095,0.0,30.0,4.0
18.44294548034668,4095,0.0,30.0,4.0
18.453393936157227,4095,0.0,30.0,4.0
18.462934017181396,4095,0.0,30.0,4.0
18.472931623458862,4095,0.0,30.0,4.0
18.483911752700806,4095,0.0,30.0,4.0
18.49296545982361,4095,0.0,30.0,4.0
18.503940105438232,4095,0.0,30.0,4.0
18.513917922973633,4095,0.0,30.0,4.0
18.52294397354126,4095,0.0,30.0,4.0
18.533938884735107,4095,0.0,30.0,4.0
18.54391860961914,4095,0.0,30.0,4.0
18.553952932357788,4095,0.0,30.0,4.0
18.562944173812866,4095,0.0,30.0,4.0
18.572965145111084,4095,0.0,30.0,4.0
18.58294177055359,4095,0.0,30.0,4.0
18.592921018600464,4095,0.0,30.0,4.0
18.60296082496643,4095,0.0,30.0,4.0
18.61294412612915,4095,0.0,30.0,4.0
18.61394190788269,27,0.0,30.0,4.0
18.63296675682068,4095,0.0,30.0,4.0
18.642923593521118,112,0.0,30.0,4.0
18.652939319610596,4095,0.0,30.0,4.0
18.66219425201416,99,0.0,30.0,4.0
18.673200130462646,4095,0.0,30.0,4.0
18.683268547058105,310,0.0,30.0,4.0
18.693034648895264,4095,0.0,30.0,4.0
18.703073978424072,710,0.0,30.0,4.0
18.706314086914062,4095,0.0,30.0,4.0
18.724086046218872,1487,0.0,30.0,4.0
18.733039617538452,4095,0.0,30.0,4.0
18.734037160873413,37,0.0,30.0,4.0
18.75403094291687,4095,0.0,30.0,4.0
18.764034509658813,4095,0.0,30.0,4.0
18.77303433418274,4095,0.0,30.0,4.0
18.78405475616455,4095,0.0,30.0,4.0
18.792902946472168,4095,0.0,30.0,4.0
18.80388379096985,4095,0.0,30.0,4.0
18.813490629196167,4095,0.0,30.0,4.0
18.822885990142822,4095,0.0,30.0,4.0
18.83387780189514,4095,0.0,30.0,4.0
18.843871355056763,4095,0.0,30.0,4.0
18.853898525238037,4095,0.0,30.0,4.0
18.8628933429718,4095,0.0,30.0,4.0
18.87318515777588,4095,0.0,30.0,4.0
18.883286714553833,4095,0.0,30.0,4.0
18.893894910812378,4095,0.0,30.0,4.0
18.903011322021484,4095,0.0,30.0,4.0
18.9061861038208,4095,0.0,30.0,4.0
18.92291760444641,4095,0.0,30.0,4.0
18.932892560958862,4095,0.0,30.0,4.0
18.943928003311157,3159,0.0,30.0,4.0
18.95387578010559,4095,0.0,30.0,4.0
18.96292996406555,2965,0.0,30.0,4.0
18.973885536193848,4095,0.0,30.0,4.0
18.983872652053833,3392,0.0,30.0,4.0
18.99292802810669,4095,0.0,30.0,4.0
19.002930402755737,3259,0.0,30.0,4.0
19.012927293777466,4095,0.0,30.0,4.0
19.02293086051941,2397,0.0,30.0,4.0
19.033902645111084,4095,0.0,30.0,4.0
19.043871879577637,4095,0.0,30.0,4.0
19.052927494049072,4095,0.0,30.0,4.0
19.062925100326538,4095,0.0,30.0,4.0
19.07289147377014,4095,0.0,30.0,4.0
19.08299469947815,4095,0.0,30.0,4.0
19.088454484939575,4095,0.0,30.0,4.0
19.109121799468994,4095,0.0,30.0,4.0
19.112905025482178,4095,0.0,30.0,4.0
19.12246823310852,4095,0.0,30.0,4.0
19.132937908172607,4095,0.0,30.0,4.0
19.14292573928833,4095,0.0,30.0,4.0
19.153930187225342,4095,0.0,30.0,4.0
19.163893699645996,4095,0.0,30.0,4.0
19.172971963882446,4095,0.0,30.0,4.0
19.182928800582886,4095,0.0,30.0,4.0
19.192967176437378,4095,0.0,30.0,4.0
19.20293641090393,4095,0.0,30.0,4.0
19.212969064712524,4095,0.0,30.0,4.0
19.22389531135559,4095,0.0,30.0,4.0
19.23387098312378,4095,0.0,30.0,4.0
19.242926597595215,4095,0.0,30.0,4.0
19.25292706489563,4095,0.0,30.0,4.0
19.26387047767639,4095,0.0,30.0,4.0
19.27297043800354,4095,0.0,30.0,4.0
19.282861709594727,4095,0.0,30.0,4.0
19.29363441467285,4095,0.0,30.0,4.0
19.302960872650146,4095,0.0,30.0,4.0
19.312918424606323,4095,0.0,30.0,4.0
19.323670387268066,4095,0.0,30.0,4.0
19.333282947540283,4095,0.0,30.0,4.0
19.34297013282776,4095,0.0,30.0,4.0
19.352964639663696,4095,0.0,30.0,4.0
19.36294412612915,4095,0.0,30.0,4.0
19.372962474822998,4095,0.0,30.0,4.0
19.382935523986816,4095,0.0,30.0,4.0
19.393914461135864,4095,0.0,30.0,4.0
19.402964115142822,4095,0.0,30.0,4.0
19.412963151931763,4095,0.0,30.0,4.0
19.422934770584106,4095,0.0,30.0,4.0
19.432937145233154,4095,0.0,30.0,4.0
19.442965269088745,4095,0.0,30.0,4.0
19.452935457229614,4095,0.0,30.0,4.0
19.46293592453003,4095,0.0,30.0,4.0
19.47296452522278,4095,0.0,30.0,4.0
19.482964277267456,4095,0.0,30.0,4.0
19.492960929870605,4095,0.0,30.0,4.0
19.503534078598022,4095,0.0,30.0,4.0
19.50634217262268,4095,0.0,30.0,4.0
19.522749185562134,4095,0.0,30.0,4.0
19.532965183258057,4095,0.0,30.0,4.0
19.54293942451477,4095,0.0,30.0,4.0
19.55294132232666,4095,0.0,30.0,4.0
19.562962532043457,4095,0.0,30.0,4.0
19.57296371459961,4095,0.0,30.0,4.0
19.582963466644287,4095,0.0,30.0,4.0
19.59293556213379,4095,0.0,30.0,4.0
19.60293698310852,4095,0.0,30.0,4.0
19.612969398498535,4095,0.0,30.0,4.0
19.622960329055786,2614,0.0,30.0,4.0
19.632962226867676,4095,0.0,30.0,4.0
19.633960008621216,336,0.0,30.0,4.0
19.652936697006226,4095,0.0,30.0,4.0
19.653934955596924,0,0.0,30.0,4.0
19.672967195510864,4095,0.0,30.0,4.0
19.682937145233154,4095,0.0,30.0,4.0
19.692935943603516,4095,0.0,30.0,4.0
19.702960968017578,4095,0.0,30.0,4.0
19.713108777999878,4095,0.0,30.0,4.0
19.723757028579712,4095,0.0,30.0,4.0
19.73294949531555,4095,0.0,30.0,4.0
19.74295210838318,4095,0.0,30.0,4.0
19.752968311309814,4095,0.0,30.0,4.0
19.762938499450684,4095,0.0,30.0,4.0
19.772965908050537,4095,0.0,30.0,4.0
19.78296160697937,4095,0.0,30.0,4.0
19.792936086654663,4095,0.0,30.0,4.0
19.802971124649048,4095,0.0,30.0,4.0
19.81296181678772,4095,0.0,30.0,4.0
19.82296347618103,4095,0.0,30.0,4.0
19.823960304260254,4095,0.0,30.0,4.0
19.842937707901,4095,0.0,30.0,4.0
19.852941036224365,4095,0.0,30.0,4.0
19.86296319961548,4095,0.0,30.0,4.0
19.87294054031372,4095,0.0,30.0,4.0
19.882935285568237,4095,0.0,30.0,4.0
19.892937898635864,4095,0.0,30.0,4.0
19.902963638305664,4095,0.0,30.0,4.0
19.912962198257446,4095,0.0,30.0,4.0
19.922991514205933,4095,0.0,30.0,4.0
19.93300771713257,4095,0.0,30.0,4.0
19.94287133216858,4095,0.0,30.0,4.0
19.952962398529053,4095,0.0,30.0,4.0
19.962944746017456,4095,0.0,30.0,4.0
19.97201442718506,4095,0.0,30.0,4.0
19.98296570777893,4095,0.0,30.0,4.0
19.992940425872803,4095,0.0,30.0,4.0
20.00293803215027,4095,0.0,30.0,4.0
20.01296353340149,4095,0.0,30.0,4.0
20.02300190925598,4095,0.0,30.0,4.0
20.033002614974976,4095,0.0,30.0,4.0
20.042962312698364,4095,0.0,30.0,4.0
20.05301070213318,4095,0.0,30.0,4.0
20.062962770462036,4095,0.0,30.0,4.0
20.073002815246582,4095,0.0,30.0,4.0
20.082961320877075,4095,0.0,30.0,4.0
20.09293556213379,4095,0.0,30.0,4.0
20.102935075759888,4095,0.0,30.0,4.0
20.112937211990356,4095,0.0,30.0,4.0
20.123006343841553,4095,0.0,30.0,4.0
20.133493185043335,4095,0.0,30.0,4.0
20.140700101852417,4095,0.0,30.0,4.0
20.15293836593628,4095,0.0,30.0,4.0
20.162949800491333,4095,0.0,30.0,4.0
20.173692226409912,4095,0.0,30.0,4.0
20.18300485610962,4095,0.0,30.0,4.0
20.192962169647217,4095,0.0,30.0,4.0
20.202965021133423,4095,0.0,30.0,4.0
20.21293568611145,4095,0.0,30.0,4.0
20.22296380996704,4095,0.0,30.0,4.0
20.232962369918823,4095,0.0,30.0,4.0
20.242939472198486,4095,0.0,30.0,4.0
20.25293493270874,4095,0.0,30.0,4.0
20.262964725494385,4095,0.0,30.0,4.0
20.273006677627563,4095,0.0,30.0,4.0
20.283002614974976,4095,0.0,30.0,4.0
20.293001890182495,4095,0.0,30.0,4.0
20.303010940551758,4095,0.0,30.0,4.0
20.313002586364746,4095,0.0,30.0,4.0
20.322962760925293,4095,0.0,30.0,4.0
20.333701610565186,4095,0.0,30.0,4.0
20.343355417251587,4095,0.0,30.0,4.0
20.353403329849243,4095,0.0,30.0,4.0
20.356924533843994,4095,0.0,30.0,4.0
20.37289524078369,4095,0.0,30.0,4.0
20.38296604156494,4095,0.0,30.0,4.0
20.392961740493774,4095,0.0,30.0,4.0
20.403005361557007,4095,0.0,30.0,4.0
20.412997722625732,4095,0.0,30.0,4.0
20.422961950302124,4095,0.0,30.0,4.0
20.433004140853882,4095,0.0,30.0,4.0
20.442964553833008,4095,0.0,30.0,4.0
20.453003406524658,4095,0.0,30.0,4.0
20.462936401367188,2245,0.0,30.0,4.0
20.472936868667603,2666,0.0,30.0,4.0
20.473934650421143,784,0.0,30.0,4.0
20.493005514144897,1313,0.0,30.0,4.0
20.502959728240967,2826,0.0,30.0,4.0
20.512937307357788,1597,0.0,30.0,4.0
20.52297616004944,3850,0.0,30.0,4.0
20.532978534698486,1460,0.0,30.0,4.0
20.54294228553772,2593,0.0,30.0,4.0
20.55333948135376,1142,0.0,30.0,4.0
20.55744767189026,2351,0.0,30.0,4.0
20.573768377304077,1245,0.0,30.0,4.0
20.581891775131226,2570,0.0,30.0,4.0
20.589195489883423,1615,0.0,30.0,4.0
20.602939128875732,2093,0.0,30.0,4.0
20.612980842590332,1462,0.0,30.0,4.0
20.622975826263428,1633,0.0,30.0,4.0
20.623989820480347,721,0.0,30.0,4.0
20.642964363098145,1910,0.0,30.0,4.0
20.643962144851685,738,0.0,30.0,4.0
20.653972625732422,1767,0.0,30.0,4.0
20.663999557495117,673,0.0,30.0,4.0
20.682936906814575,1619,0.0,30.0,4.0
20.68394923210144,592,0.0,30.0,4.0
20.702964544296265,1468,0.0,30.0,4.0
20.703962802886963,535,0.0,30.0,4.0
20.71396827697754,1442,0.0,30.0,4.0
20.723967790603638,480,0.0,30.0,4.0
20.74293851852417,1478,0.0,30.0,4.0
20.7439546585083,417,0.0,30.0,4.0
20.763590335845947,1424,0.0,30.0,4.0
20.772809267044067,406,0.0,30.0,4.0
20.78175926208496,1345,0.0,30.0,4.0
20.78817629814148,354,0.0,30.0,4.0
20.79717230796814,944,0.0,30.0,4.0
20.80597949028015,336,0.0,30.0,4.0
20.81599259376526,785,0.0,30.0,4.0
20.825993061065674,340,0.0,30.0,4.0
20.839012622833252,786,0.0,30.0,4.0
20.850131511688232,318,0.0,30.0,4.0
20.86120843887329,709,0.0,30.0,4.0
20.86585259437561,304,0.0,30.0,4.0
20.875858783721924,720,0.0,30.0,4.0
20.885857105255127,334,0.0,30.0,4.0
20.895857095718384,804,0.0,30.0,4.0
20.905857801437378,322,0.0,30.0,4.0
20.915857791900635,815,0.0,30.0,4.0
20.926971912384033,295,0.0,30.0,4.0
20.936970472335815,685,0.0,30.0,4.0
20.946969747543335,299,0.0,30.0,4.0
20.956969261169434,667,0.0,30.0,4.0
20.972542762756348,302,0.0,30.0,4.0
20.978880882263184,606,0.0,30.0,4.0
20.990742444992065,278,0.0,30.0,4.0
21.0027072429657,534,0.0,30.0,4.0
21.006065607070923,282,0.0,30.0,4.0
21.022533893585205,542,0.0,30.0,4.0
21.023517847061157,258,0.0,30.0,4.0
21.033528327941895,306,0.0,30.0,4.0
21.043527364730835,224,0.0,30.0,4.0
21.053527355194092,160,0.0,30.0,4.0
21.07272243499756,208,0.0,30.0,4.0
21.082160472869873,141,0.0,30.0,4.0
21.086756467819214,383,0.0,30.0,4.0
21.097341060638428,147,0.0,30.0,4.0
21.107880353927612,326,0.0,30.0,4.0
21.122864246368408,122,0.0,30.0,4.0
21.13286566734314,317,0.0,30.0,4.0
21.142579555511475,2507,0.0,30.0,4.0
21.14988398551941,0,0.0,30.0,4.0
21.1554057598114,2230,0.0,30.0,4.0
21.165396451950073,196,0.0,30.0,4.0
21.179298877716064,2327,0.0,30.0,4.0
21.189064264297485,80,0.0,30.0,4.0
21.196112394332886,2393,0.0,30.0,4.0
21.207412242889404,987,0.0,30.0,4.0
21.22243070602417,2369,0.0,30.0,4.0
21.231502771377563,1745,0.0,30.0,4.0
21.241454601287842,2272,0.0,30.0,4.0
21.251455545425415,1630,0.0,30.0,4.0
21.261938095092773,2213,0.0,30.0,4.0
21.27173686027527,1348,0.0,30.0,4.0
21.281737804412842,1955,0.0,30.0,4.0
21.291736841201782,2921,0.0,30.0,4.0
21.301738262176514,1550,0.0,30.0,4.0
21.311736822128296,3258,0.0,30.0,4.0
21.321736812591553,1275,0.0,30.0,4.0
21.331737518310547,3894,0.0,30.0,4.0
21.342787981033325,1063,0.0,30.0,4.0
21.352365493774414,4095,0.0,30.0,4.0
21.36229920387268,753,0.0,30.0,4.0
21.372299671173096,4095,0.0,30.0,4.0
21.382887840270996,4095,0.0,30.0,4.0
21.39337158203125,4095,0.0,30.0,4.0
21.40217900276184,4095,0.0,30.0,4.0
21.41268038749695,4095,0.0,30.0,4.0
21.422780752182007,4095,0.0,30.0,4.0
21.432910919189453,4095,0.0,30.0,4.0
21.440033197402954,4095,0.0,30.0,4.0
21.444088459014893,4095,0.0,30.0,4.0
21.45556902885437,4095,0.0,30.0,4.0
21.46409845352173,3854,0.0,30.0,4.0
21.474081993103027,4095,0.0,30.0,4.0
21.484081745147705,3458,0.0,30.0,4.0
21.494727849960327,2043,0.0,30.0,4.0
21.504730224609375,3202,0.0,30.0,4.0
21.515252351760864,2007,0.0,30.0,4.0
21.52523446083069,3055,0.0,30.0,4.0
21.535234451293945,594,0.0,30.0,4.0
21.54572820663452,3043,0.0,30.0,4.0
21.555710792541504,613,0.0,30.0,4.0
21.566521167755127,2961,0.0,30.0,4.0
21.57593822479248,462,0.0,30.0,4.0
21.58591914176941,3090,0.0,30.0,4.0
21.600518226623535,135,0.0,30.0,4.0
21.61143922805786,3189,0.0,30.0,4.0
21.622328996658325,78,0.0,30.0,4.0
21.626954555511475,3570,0.0,30.0,4.0
21.638845682144165,37,0.0,30.0,4.0
21.64721918106079,3567,0.0,30.0,4.0
21.65536332130432,0,0.0,30.0,4.0
21.665408611297607,4095,0.0,30.0,4.0
21.675397872924805,0,0.0,30.0,4.0
21.685399055480957,4095,0.0,30.0,4.0
21.695940256118774,0,0.0,30.0,4.0
21.705711126327515,4095,0.0,30.0,4.0
21.71571135520935,62,0.0,30.0,4.0
21.72630500793457,3824,0.0,30.0,4.0
21.739665985107422,7,0.0,30.0,4.0
21.747925519943237,4095,0.0,30.0,4.0
21.759052991867065,48,0.0,30.0,4.0
21.76878523826599,3632,0.0,30.0,4.0
21.77857208251953,112,0.0,30.0,4.0
21.78857183456421,3678,0.0,30.0,4.0
21.798571825027466,48,0.0,30.0,4.0
21.811097145080566,3325,0.0,30.0,4.0
21.822667837142944,0,0.0,30.0,4.0
21.829233646392822,2748,0.0,30.0,4.0
21.83953857421875,4095,0.0,30.0,4.0
21.847511291503906,2454,0.0,30.0,4.0
21.85584330558777,4095,0.0,30.0,4.0
21.865156173706055,2555,0.0,30.0,4.0
21.874951601028442,3478,0.0,30.0,4.0
21.892754077911377,2693,0.0,30.0,4.0
21.8953537940979,3891,0.0,30.0,4.0
21.90529465675354,2689,0.0,30.0,4.0
21.915285348892212,4095,0.0,30.0,4.0
21.92580556869507,2517,0.0,30.0,4.0
21.935718536376953,2691,0.0,30.0,4.0
21.945720672607422,2429,0.0,30.0,4.0
21.95571732521057,1850,0.0,30.0,4.0
21.965718984603882,2454,0.0,30.0,4.0
21.976320505142212,1526,0.0,30.0,4.0
21.98618769645691,2199,0.0,30.0,4.0
21.996187448501587,854,0.0,30.0,4.0
22.006726026535034,2198,0.0,30.0,4.0
22.022220134735107,1055,0.0,30.0,4.0
22.031726598739624,2177,0.0,30.0,4.0
22.040470361709595,880,0.0,30.0,4.0
22.04848575592041,2446,0.0,30.0,4.0
22.058963537216187,510,0.0,30.0,4.0
22.066909790039062,2399,0.0,30.0,4.0
22.075172424316406,301,0.0,30.0,4.0
22.084941864013672,2367,0.0,30.0,4.0
22.09494185447693,0,0.0,30.0,4.0
22.10522985458374,2261,0.0,30.0,4.0
22.115209817886353,0,0.0,30.0,4.0
22.12540316581726,2063,0.0,30.0,4.0
22.13637924194336,0,0.0,30.0,4.0
22.146350383758545,2105,0.0,30.0,4.0
22.156351804733276,0,0.0,30.0,4.0
22.166728258132935,1890,0.0,30.0,4.0
22.17670726776123,0,0.0,30.0,4.0
22.186740398406982,1835,0.0,30.0,4.0
22.197237253189087,0,0.0,30.0,4.0
22.20724105834961,1754,0.0,30.0,4.0
22.217228174209595,0,0.0,30.0,4.0
22.231123447418213,1611,0.0,30.0,4.0
22.24222731590271,0,0.0,30.0,4.0
22.24778699874878,1502,0.0,30.0,4.0
22.25901198387146,0,0.0,30.0,4.0
22.2725088596344,1549,0.0,30.0,4.0
22.280526399612427,0,0.0,30.0,4.0
22.28958821296692,1904,0.0,30.0,4.0
22.298654317855835,0,0.0,30.0,4.0
22.308600902557373,1813,0.0,30.0,4.0
22.318598985671997,0,0.0,30.0,4.0
22.328709602355957,1778,0.0,30.0,4.0
22.33868408203125,0,0.0,30.0,4.0
22.34868311882019,1733,0.0,30.0,4.0
22.35920286178589,0,0.0,30.0,4.0
22.369185209274292,1617,0.0,30.0,4.0
22.37918496131897,0,0.0,30.0,4.0
22.389186143875122,1552,0.0,30.0,4.0
22.399184703826904,0,0.0,30.0,4.0
22.40974450111389,1863,0.0,30.0,4.0
22.419692993164062,0,0.0,30.0,4.0
22.4296932220459,1872,0.0,30.0,4.0
22.44269347190857,0,0.0,30.0,4.0
22.452332019805908,1848,0.0,30.0,4.0
22.460580110549927,0,0.0,30.0,4.0
22.47217082977295,1855,0.0,30.0,4.0
22.48037886619568,0,0.0,30.0,4.0
22.49100351333618,1852,0.0,30.0,4.0
22.49803352355957,226,0.0,30.0,4.0
22.508022785186768,1423,0.0,30.0,4.0
22.518022060394287,413,0.0,30.0,4.0
22.52961039543152,1357,0.0,30.0,4.0
22.538652420043945,418,0.0,30.0,4.0
22.54862356185913,1331,0.0,30.0,4.0
22.558623552322388,287,0.0,30.0,4.0
22.569175481796265,1030,0.0,30.0,4.0
22.57915711402893,691,0.0,30.0,4.0
22.589158296585083,1531,0.0,30.0,4.0
22.599708080291748,1299,0.0,30.0,4.0
22.60965847969055,1301,0.0,30.0,4.0
22.61965823173523,755,0.0,30.0,4.0
22.630203008651733,1303,0.0,30.0,4.0
22.64016819000244,592,0.0,30.0,4.0
22.6528377532959,1547,0.0,30.0,4.0
22.662338495254517,639,0.0,30.0,4.0
22.672260761260986,928,0.0,30.0,4.0
22.680290460586548,560,0.0,30.0,4.0
22.68912363052368,1011,0.0,30.0,4.0
22.697132349014282,535,0.0,30.0,4.0
22.70518708229065,1216,0.0,30.0,4.0
22.715248107910156,767,0.0,30.0,4.0
22.725199460983276,1206,0.0,30.0,4.0
22.735182285308838,837,0.0,30.0,4.0
22.745832204818726,1195,0.0,30.0,4.0
22.755712747573853,902,0.0,30.0,4.0
22.765684843063354,1125,0.0,30.0,4.0
22.775684595108032,848,0.0,30.0,4.0
22.785684823989868,1040,0.0,30.0,4.0
22.795684814453125,848,0.0,30.0,4.0
22.8056857585907,1158,0.0,30.0,4.0
22.81620478630066,746,0.0,30.0,4.0
22.82618474960327,1226,0.0,30.0,4.0
22.837318897247314,640,0.0,30.0,4.0
22.84639310836792,1209,0.0,30.0,4.0
22.86129665374756,570,0.0,30.0,4.0
22.871373176574707,1106,0.0,30.0,4.0
22.88007140159607,464,0.0,30.0,4.0
22.890331983566284,1029,0.0,30.0,4.0
22.901923656463623,378,0.0,30.0,4.0
22.910714864730835,951,0.0,30.0,4.0
22.921961069107056,302,0.0,30.0,4.0
22.932130098342896,879,0.0,30.0,4.0
22.941967487335205,256,0.0,30.0,4.0
22.951967000961304,890,0.0,30.0,4.0
22.961968421936035,204,0.0,30.0,4.0
22.97196865081787,899,0.0,30.0,4.0
22.981967449188232,381,0.0,30.0,4.0
22.99196720123291,937,0.0,30.0,4.0
23.001967191696167,405,0.0,30.0,4.0
23.011967420578003,959,0.0,30.0,4.0
23.02196717262268,373,0.0,30.0,4.0
23.031967401504517,882,0.0,30.0,4.0
23.041967153549194,386,0.0,30.0,4.0
23.051968336105347,873,0.0,30.0,4.0
23.061967134475708,385,0.0,30.0,4.0
23.07242703437805,833,0.0,30.0,4.0
23.082338333129883,430,0.0,30.0,4.0
23.092820405960083,827,0.0,30.0,4.0
23.100745677947998,402,0.0,30.0,4.0
23.105670928955078,791,0.0,30.0,4.0
23.12212061882019,406,0.0,30.0,4.0
23.128233909606934,784,0.0,30.0,4.0
23.13632822036743,431,0.0,30.0,4.0
23.146260023117065,789,0.0,30.0,4.0
23.15626072883606,435,0.0,30.0,4.0
23.167203426361084,1103,0.0,30.0,4.0
23.177197456359863,0,0.0,30.0,4.0
23.18717885017395,1209,0.0,30.0,4.0
23.197664260864258,0,0.0,30.0,4.0
23.207640409469604,1263,0.0,30.0,4.0
23.217649221420288,0,0.0,30.0,4.0
23.22763729095459,1500,0.0,30.0,4.0
23.23764944076538,83,0.0,30.0,4.0
23.249443531036377,1334,0.0,30.0,4.0
23.258610486984253,0,0.0,30.0,4.0
23.26846671104431,1373,0.0,30.0,4.0
23.282604694366455,49,0.0,30.0,4.0
23.28954815864563,1235,0.0,30.0,4.0
23.2975652217865,0,0.0,30.0,4.0
23.305904150009155,1255,0.0,30.0,4.0
23.322025299072266,4095,0.0,30.0,4.0
23.32456684112549,1166,0.0,30.0,4.0
23.334547996520996,2493,0.0,30.0,4.0
23.344547748565674,1079,0.0,30.0,4.0
23.354774951934814,912,0.0,30.0,4.0
23.364657163619995,951,0.0,30.0,4.0
23.37754225730896,1177,0.0,30.0,4.0
23.385151147842407,1017,0.0,30.0,4.0
23.39507031440735,1413,0.0,30.0,4.0
23.41263771057129,982,0.0,30.0,4.0
23.415169715881348,1299,0.0,30.0,4.0
23.42514729499817,1015,0.0,30.0,4.0
23.435147523880005,1198,0.0,30.0,4.0
23.445648908615112,953,0.0,30.0,4.0
23.455631017684937,873,0.0,30.0,4.0
23.465631008148193,885,0.0,30.0,4.0
23.476129293441772,934,0.0,30.0,4.0
23.491950750350952,752,0.0,30.0,4.0
23.497236013412476,467,0.0,30.0,4.0
23.50717782974243,678,0.0,30.0,4.0
23.521005392074585,0,0.0,30.0,4.0
23.531514167785645,624,0.0,30.0,4.0
23.541800260543823,0,0.0,30.0,4.0
23.551785230636597,848,0.0,30.0,4.0
23.561785459518433,0,0.0,30.0,4.0
23.57178521156311,880,0.0,30.0,4.0
23.581795692443848,0,0.0,30.0,4.0
23.591785192489624,779,0.0,30.0,4.0
23.60178518295288,0,0.0,30.0,4.0
23.611785411834717,748,0.0,30.0,4.0
23.621785163879395,0,0.0,30.0,4.0
23.63178539276123,693,0.0,30.0,4.0
23.641785144805908,76,0.0,30.0,4.0
23.65235686302185,670,0.0,30.0,4.0
23.66214919090271,83,0.0,30.0,4.0
23.672150135040283,606,0.0,30.0,4.0
23.682149171829224,211,0.0,30.0,4.0
23.69214916229248,705,0.0,30.0,4.0
23.702733039855957,15,0.0,30.0,4.0
23.712785005569458,717,0.0,30.0,4.0
23.722275972366333,248,0.0,30.0,4.0
23.731640815734863,637,0.0,30.0,4.0
23.738609552383423,243,0.0,30.0,4.0
23.746690273284912,592,0.0,30.0,4.0
23.756357669830322,214,0.0,30.0,4.0
23.765052795410156,558,0.0,30.0,4.0
23.77488398551941,208,0.0,30.0,4.0
23.78488302230835,497,0.0,30.0,4.0
23.795514345169067,310,0.0,30.0,4.0
23.805423736572266,464,0.0,30.0,4.0
23.815423011779785,213,0.0,30.0,4.0
23.826160192489624,427,0.0,30.0,4.0
23.836111307144165,300,0.0,30.0,4.0
23.84611201286316,368,0.0,30.0,4.0
23.857011318206787,372,0.0,30.0,4.0
23.866634130477905,345,0.0,30.0,4.0
23.876628637313843,278,0.0,30.0,4.0
23.88712191581726,319,0.0,30.0,4.0
23.89710760116577,237,0.0,30.0,4.0
23.91263699531555,319,0.0,30.0,4.0
23.922358512878418,221,0.0,30.0,4.0
23.93138861656189,368,0.0,30.0,4.0
23.938565731048584,177,0.0,30.0,4.0
23.946582317352295,443,0.0,30.0,4.0
23.955318212509155,161,0.0,30.0,4.0
23.965487241744995,447,0.0,30.0,4.0
23.975486278533936,135,0.0,30.0,4.0
23.985486268997192,561,0.0,30.0,4.0
23.995488166809082,129,0.0,30.0,4.0
24.005486488342285,646,0.0,30.0,4.0
24.015486001968384,118,0.0,30.0,4.0
24.026003122329712,1125,0.0,30.0,4.0
24.036078929901123,132,0.0,30.0,4.0
24.04608941078186,1722,0.0,30.0,4.0
24.056078910827637,160,0.0,30.0,4.0
24.066081285476685,1515,0.0,30.0,4.0
24.07607889175415,150,0.0,30.0,4.0
24.086079120635986,1197,0.0,30.0,4.0
24.09610080718994,189,0.0,30.0,4.0
24.1060791015625,1104,0.0,30.0,4.0
24.122707843780518,0,0.0,30.0,4.0
24.123600482940674,1382,0.0,30.0,4.0
24.147327423095703,0,0.0,30.0,4.0
24.151357412338257,2224,0.0,30.0,4.0
24.16239595413208,0,0.0,30.0,4.0
24.17278742790222,2099,0.0,30.0,4.0
24.182856798171997,0,0.0,30.0,4.0
24.19285774230957,1654,0.0,30.0,4.0
24.20285677909851,0,0.0,30.0,4.0
24.212857007980347,1617,0.0,30.0,4.0
24.222856760025024,0,0.0,30.0,4.0
24.23285698890686,1502,0.0,30.0,4.0
24.242856740951538,6,0.0,30.0,4.0
24.252710819244385,1366,0.0,30.0,4.0
24.26272678375244,7,0.0,30.0,4.0
24.272722721099854,1329,0.0,30.0,4.0
24.282723426818848,27,0.0,30.0,4.0
24.292723178863525,1534,0.0,30.0,4.0
24.30272340774536,109,0.0,30.0,4.0
24.312679767608643,1507,0.0,30.0,4.0
24.322694540023804,0,0.0,30.0,4.0
24.332017421722412,1714,0.0,30.0,4.0
24.342798948287964,0,0.0,30.0,4.0
24.34379529953003,848,0.0,30.0,4.0
24.356992483139038,337,0.0,30.0,4.0
24.37110996246338,1457,0.0,30.0,4.0
24.380087852478027,299,0.0,30.0,4.0
24.38808798789978,240,0.0,30.0,4.0
24.396114826202393,475,0.0,30.0,4.0
24.406115531921387,528,0.0,30.0,4.0
24.416115760803223,459,0.0,30.0,4.0
24.432761669158936,419,0.0,30.0,4.0
24.44277334213257,605,0.0,30.0,4.0
24.452773094177246,259,0.0,30.0,4.0
24.462769508361816,642,0.0,30.0,4.0
24.472772121429443,0,0.0,30.0,4.0
24.482770919799805,593,0.0,30.0,4.0
24.492769718170166,0,0.0,30.0,4.0
24.49465799331665,472,0.0,30.0,4.0
24.504695415496826,0,0.0,30.0,4.0
24.514676332473755,295,0.0,30.0,4.0
24.524676084518433,6,0.0,30.0,4.0
24.537822246551514,161,0.0,30.0,4.0
24.544239044189453,284,0.0,30.0,4.0
24.56234097480774,16,0.0,30.0,4.0
24.57228136062622,528,0.0,30.0,4.0
24.581323623657227,0,0.0,30.0,4.0
24.587719440460205,726,0.0,30.0,4.0
24.596596240997314,0,0.0,30.0,4.0
24.612706184387207,979,0.0,30.0,4.0
24.62273931503296,0,0.0,30.0,4.0
24.63290023803711,1072,0.0,30.0,4.0
24.63389778137207,0,0.0,30.0,4.0
24.644879817962646,1306,0.0,30.0,4.0
24.654879570007324,0,0.0,30.0,4.0
24.664894819259644,1167,0.0,30.0,4.0
24.677165508270264,0,0.0,30.0,4.0
24.687182188034058,1223,0.0,30.0,4.0
24.697182178497314,0,0.0,30.0,4.0
24.70718216896057,1109,0.0,30.0,4.0
24.717183351516724,0,0.0,30.0,4.0
24.727182149887085,715,0.0,30.0,4.0
24.737207889556885,0,0.0,30.0,4.0
24.752331256866455,863,0.0,30.0,4.0
24.759254932403564,0,0.0,30.0,4.0
24.77285408973694,1394,0.0,30.0,4.0
24.780892610549927,0,0.0,30.0,4.0
24.788676500320435,1299,0.0,30.0,4.0
24.79797124862671,0,0.0,30.0,4.0
24.80600142478943,850,0.0,30.0,4.0
24.81600332260132,2171,0.0,30.0,4.0
24.83267855644226,743,0.0,30.0,4.0
24.842692852020264,400,0.0,30.0,4.0
24.852690935134888,673,0.0,30.0,4.0
24.862689971923828,560,0.0,30.0,4.0
24.8726909160614,595,0.0,30.0,4.0
24.882691383361816,534,0.0,30.0,4.0
24.892690658569336,1975,0.0,30.0,4.0
24.902690887451172,648,0.0,30.0,4.0
24.91269087791443,1904,0.0,30.0,4.0
24.9227135181427,553,0.0,30.0,4.0
24.9327392578125,1645,0.0,30.0,4.0
24.938944578170776,575,0.0,30.0,4.0
24.948948860168457,1429,0.0,30.0,4.0
24.961567640304565,528,0.0,30.0,4.0
24.972995042800903,1323,0.0,30.0,4.0
24.982128620147705,529,0.0,30.0,4.0
24.9873526096344,1285,0.0,30.0,4.0
24.99630904197693,437,0.0,30.0,4.0
25.005093574523926,1426,0.0,30.0,4.0
25.015231370925903,304,0.0,30.0,4.0
25.02523112297058,1281,0.0,30.0,4.0
25.035231351852417,157,0.0,30.0,4.0
25.045233964920044,1429,0.0,30.0,4.0
25.05523133277893,25,0.0,30.0,4.0
25.068013906478882,1340,0.0,30.0,4.0
25.078031301498413,0,0.0,30.0,4.0
25.08803129196167,1317,0.0,30.0,4.0
25.098044395446777,0,0.0,30.0,4.0
25.108031272888184,1313,0.0,30.0,4.0
25.11803102493286,0,0.0,30.0,4.0
25.128031253814697,1185,0.0,30.0,4.0
25.13803243637085,0,0.0,30.0,4.0
25.149178981781006,1115,0.0,30.0,4.0
25.15917658805847,0,0.0,30.0,4.0
25.171766757965088,1258,0.0,30.0,4.0
25.180142402648926,0,0.0,30.0,4.0
25.19267463684082,1178,0.0,30.0,4.0
25.200684309005737,0,0.0,30.0,4.0
25.212944269180298,893,0.0,30.0,4.0
25.22175669670105,0,0.0,30.0,4.0
25.232712030410767,900,0.0,30.0,4.0
25.242724180221558,0,0.0,30.0,4.0
25.252724409103394,1006,0.0,30.0,4.0
25.26272439956665,0,0.0,30.0,4.0
25.272722959518433,890,0.0,30.0,4.0
25.28272032737732,0,0.0,30.0,4.0
25.292724609375,959,0.0,30.0,4.0
25.302724838256836,0,0.0,30.0,4.0
25.31272268295288,882,0.0,30.0,4.0
25.322742700576782,0,0.0,30.0,4.0
25.332725763320923,813,0.0,30.0,4.0
25.342723846435547,0,0.0,30.0,4.0
25.346456289291382,892,0.0,30.0,4.0
25.35596752166748,2,0.0,30.0,4.0
25.365974187850952,877,0.0,30.0,4.0
25.37997031211853,0,0.0,30.0,4.0
25.3886559009552,894,0.0,30.0,4.0
25.396667957305908,0,0.0,30.0,4.0
25.406984329223633,846,0.0,30.0,4.0
25.421590089797974,0,0.0,30.0,4.0
25.431602716445923,874,0.0,30.0,4.0
25.44269323348999,0,0.0,30.0,4.0
25.448203086853027,913,0.0,30.0,4.0
25.462677478790283,0,0.0,30.0,4.0
25.472686052322388,850,0.0,30.0,4.0
25.482686281204224,26,0.0,30.0,4.0
25.49268651008606,1030,0.0,30.0,4.0
25.502689838409424,0,0.0,30.0,4.0
25.512861728668213,1456,0.0,30.0,4.0
25.52268934249878,2150,0.0,30.0,4.0
25.532719373703003,1259,0.0,30.0,4.0
25.542701721191406,2432,0.0,30.0,4.0
25.552701473236084,1132,0.0,30.0,4.0
25.56270170211792,2305,0.0,30.0,4.0
25.572699308395386,947,0.0,30.0,4.0
25.58270835876465,2298,0.0,30.0,4.0
25.592790842056274,911,0.0,30.0,4.0
25.602454662322998,2288,0.0,30.0,4.0
25.60727620124817,882,0.0,30.0,4.0
25.622799396514893,599,0.0,30.0,4.0
25.631810426712036,747,0.0,30.0,4.0
25.638230562210083,0,0.0,30.0,4.0
25.64824104309082,1488,0.0,30.0,4.0
25.658241033554077,0,0.0,30.0,4.0
25.668241024017334,1632,0.0,30.0,4.0
25.67824101448059,0,0.0,30.0,4.0
25.6882483959198,1264,0.0,30.0,4.0
25.698241710662842,0,0.0,30.0,4.0
25.70825433731079,1163,0.0,30.0,4.0
25.718241214752197,0,0.0,30.0,4.0
25.73267960548401,1732,0.0,30.0,4.0
25.742688179016113,0,0.0,30.0,4.0
25.75268793106079,1775,0.0,30.0,4.0
25.762691497802734,0,0.0,30.0,4.0
25.772690534591675,1397,0.0,30.0,4.0
25.78268790245056,1191,0.0,30.0,4.0
25.7927143573761,1306,0.0,30.0,4.0
25.802758932113647,1552,0.0,30.0,4.0
25.812908411026,771,0.0,30.0,4.0
25.821515798568726,1277,0.0,30.0,4.0
25.830495595932007,1565,0.0,30.0,4.0
25.837215662002563,1302,0.0,30.0,4.0
25.84618353843689,1282,0.0,30.0,4.0
25.85593843460083,1865,0.0,30.0,4.0
25.865947484970093,662,0.0,30.0,4.0
25.87594771385193,17,0.0,30.0,4.0
25.885947465896606,1058,0.0,30.0,4.0
25.89594793319702,0,0.0,30.0,4.0
25.905948877334595,1340,0.0,30.0,4.0
25.91596508026123,0,0.0,30.0,4.0
25.9259512424469,1429,0.0,30.0,4.0
25.93594765663147,0,0.0,30.0,4.0
25.94594717025757,0,0.0,30.0,4.0
25.96252989768982,0,0.0,30.0,4.0
25.972596645355225,0,0.0,30.0,4.0
25.982591152191162,14,0.0,30.0,4.0
25.984585523605347,16,0.0,30.0,4.0
25.994600534439087,100,0.0,30.0,4.0
26.012552499771118,11,0.0,30.0,4.0
26.022982597351074,139,0.0,30.0,4.0
26.03100347518921,0,0.0,30.0,4.0
26.037157773971558,130,0.0,30.0,4.0
26.046142101287842,0,0.0,30.0,4.0
26.055890321731567,71,0.0,30.0,4.0
26.065905809402466,0,0.0,30.0,4.0
26.075905799865723,15,0.0,30.0,4.0
26.08590602874756,1107,0.0,30.0,4.0
26.095914363861084,0,0.0,30.0,4.0
26.105905771255493,1647,0.0,30.0,4.0
26.11590552330017,0,0.0,30.0,4.0
26.125905752182007,1676,0.0,30.0,4.0
26.13590669631958,0,0.0,30.0,4.0
26.14590549468994,2062,0.0,30.0,4.0
26.157001733779907,0,0.0,30.0,4.0
26.16700315475464,2185,0.0,30.0,4.0
26.177004098892212,0,0.0,30.0,4.0
26.187004566192627,2160,0.0,30.0,4.0
26.197004318237305,0,0.0,30.0,4.0
26.207003831863403,1968,0.0,30.0,4.0
26.220940351486206,0,0.0,30.0,4.0
26.226292610168457,1935,0.0,30.0,4.0
26.24252939224243,751,0.0,30.0,4.0
26.24806809425354,1874,0.0,30.0,4.0
26.255840301513672,4095,0.0,30.0,4.0
26.272705554962158,1681,0.0,30.0,4.0
26.28072237968445,4095,0.0,30.0,4.0
26.292686223983765,1467,0.0,30.0,4.0
26.302698135375977,4095,0.0,30.0,4.0
26.312700271606445,1097,0.0,30.0,4.0
26.322694540023804,4095,0.0,30.0,4.0
26.332711696624756,912,0.0,30.0,4.0
26.342713117599487,4095,0.0,30.0,4.0
26.35283660888672,634,0.0,30.0,4.0
26.353832960128784,4095,0.0,30.0,4.0
26.363840341567993,363,0.0,30.0,4.0
26.373839855194092,4095,0.0,30.0,4.0
26.383862733840942,819,0.0,30.0,4.0
26.402705430984497,4095,0.0,30.0,4.0
26.41224980354309,907,0.0,30.0,4.0
26.422255277633667,4095,0.0,30.0,4.0
26.432705640792847,1111,0.0,30.0,4.0
26.442283153533936,4095,0.0,30.0,4.0
26.446743488311768,1133,0.0,30.0,4.0
26.456244230270386,4095,0.0,30.0,4.0
26.472116231918335,1311,0.0,30.0,4.0
26.48012089729309,4095,0.0,30.0,4.0
26.48916482925415,1381,0.0,30.0,4.0
26.49917244911194,4095,0.0,30.0,4.0
26.5091712474823,1441,0.0,30.0,4.0
26.519171476364136,4095,0.0,30.0,4.0
26.531476259231567,1442,0.0,30.0,4.0
26.541491985321045,851,0.0,30.0,4.0
26.5514919757843,1424,0.0,30.0,4.0
26.56149172782898,803,0.0,30.0,4.0
26.57270336151123,817,0.0,30.0,4.0
26.582719087600708,493,0.0,30.0,4.0
26.592718601226807,778,0.0,30.0,4.0
26.60271644592285,633,0.0,30.0,4.0
26.612715005874634,1010,0.0,30.0,4.0
26.622715950012207,3871,0.0,30.0,4.0
26.632715940475464,935,0.0,30.0,4.0
26.64282751083374,849,0.0,30.0,4.0
26.65234375,742,0.0,30.0,4.0
26.65913414955139,4095,0.0,30.0,4.0
26.672826051712036,610,0.0,30.0,4.0
26.68182134628296,4095,0.0,30.0,4.0
26.68727397918701,618,0.0,30.0,4.0
26.696112394332886,4095,0.0,30.0,4.0
26.712222814559937,554,0.0,30.0,4.0
26.713220357894897,4095,0.0,30.0,4.0
26.723236322402954,465,0.0,30.0,4.0
26.73323655128479,4095,0.0,30.0,4.0
26.743240118026733,433,0.0,30.0,4.0
26.753236293792725,4095,0.0,30.0,4.0
26.772703170776367,384,0.0,30.0,4.0
26.782715559005737,4095,0.0,30.0,4.0
26.79271173477173,477,0.0,30.0,4.0
26.80271577835083,4095,0.0,30.0,4.0
26.812715530395508,427,0.0,30.0,4.0
26.8227117061615,4095,0.0,30.0,4.0
26.824048042297363,371,0.0,30.0,4.0
26.83503293991089,4095,0.0,30.0,4.0
26.845060348510742,317,0.0,30.0,4.0
26.862951040267944,4095,0.0,30.0,4.0
26.872817993164062,313,0.0,30.0,4.0
26.88086199760437,4095,0.0,30.0,4.0
26.88699173927307,302,0.0,30.0,4.0
26.895963668823242,4095,0.0,30.0,4.0
26.905781745910645,256,0.0,30.0,4.0
26.92255401611328,4095,0.0,30.0,4.0
26.924561023712158,151,0.0,30.0,4.0
26.934571981430054,4095,0.0,30.0,4.0
26.944571256637573,208,0.0,30.0,4.0
26.954569816589355,4095,0.0,30.0,4.0
26.964569807052612,138,0.0,30.0,4.0
26.980860471725464,4095,0.0,30.0,4.0
26.99086308479309,155,0.0,30.0,4.0
27.002451181411743,0,0.0,30.0,4.0
27.004444360733032,130,0.0,30.0,4.0
27.01446795463562,0,0.0,30.0,4.0
27.02446699142456,152,0.0,30.0,4.0
27.034467458724976,0,0.0,30.0,4.0
27.044466972351074,705,0.0,30.0,4.0
27.054468154907227,0,0.0,30.0,4.0
27.071361541748047,938,0.0,30.0,4.0
27.081692934036255,0,0.0,30.0,4.0
27.092712879180908,1149,0.0,30.0,4.0
27.10072684288025,4095,0.0,30.0,4.0
27.112982034683228,1283,0.0,30.0,4.0
27.12102198600769,4095,0.0,30.0,4.0
27.132015228271484,1250,0.0,30.0,4.0
27.14268660545349,4095,0.0,30.0,4.0
27.152698755264282,1171,0.0,30.0,4.0
27.162936449050903,2304,0.0,30.0,4.0
27.163934469223022,1123,0.0,30.0,4.0
27.174105167388916,4095,0.0,30.0,4.0
27.184080362319946,1008,0.0,30.0,4.0
27.194080352783203,4095,0.0,30.0,4.0
27.20408010482788,930,0.0,30.0,4.0
27.214081287384033,4095,0.0,30.0,4.0
27.22408103942871,817,0.0,30.0,4.0
27.234081268310547,4095,0.0,30.0,4.0
27.244080305099487,399,0.0,30.0,4.0
27.254080295562744,4095,0.0,30.0,4.0
27.264080286026,254,0.0,30.0,4.0
27.282835721969604,4095,0.0,30.0,4.0
27.288349628448486,94,0.0,30.0,4.0
27.29733633995056,4095,0.0,30.0,4.0
27.31259512901306,0,0.0,30.0,4.0
27.322705268859863,4095,0.0,30.0,4.0
27.332730531692505,192,0.0,30.0,4.0
27.342713594436646,2832,0.0,30.0,4.0
27.352717638015747,112,0.0,30.0,4.0
27.36271834373474,4095,0.0,30.0,4.0
27.372714042663574,0,0.0,30.0,4.0
27.382724285125732,4095,0.0,30.0,4.0
27.392717599868774,27,0.0,30.0,4.0
27.402717351913452,4095,0.0,30.0,4.0
27.412713766098022,0,0.0,30.0,4.0
27.42272663116455,2000,0.0,30.0,4.0
27.43272614479065,0,0.0,30.0,4.0
27.442726135253906,1909,0.0,30.0,4.0
27.452726125717163,14,0.0,30.0,4.0
27.462726593017578,998,0.0,30.0,4.0
27.472726106643677,4,0.0,30.0,4.0
27.482853174209595,2213,0.0,30.0,4.0
27.48881459236145,0,0.0,30.0,4.0
27.502567529678345,3838,0.0,30.0,4.0
27.51267385482788,36,0.0,30.0,4.0
27.522675275802612,3920,0.0,30.0,4.0
27.525160312652588,123,0.0,30.0,4.0
27.539349794387817,4095,0.0,30.0,4.0
27.54745364189148,186,0.0,30.0,4.0
27.56295680999756,3632,0.0,30.0,4.0
27.571033477783203,222,0.0,30.0,4.0
27.575940370559692,3209,0.0,30.0,4.0
27.58595609664917,187,0.0,30.0,4.0
27.59597873687744,3376,0.0,30.0,4.0
27.605955123901367,249,0.0,30.0,4.0
27.61595630645752,3227,0.0,30.0,4.0
27.62595510482788,236,0.0,30.0,4.0
27.635955333709717,3290,0.0,30.0,4.0
27.645955085754395,256,0.0,30.0,4.0
27.65595507621765,3511,0.0,30.0,4.0
27.665953874588013,256,0.0,30.0,4.0
27.68269371986389,3711,0.0,30.0,4.0
27.69247579574585,270,0.0,30.0,4.0
27.69347310066223,3290,0.0,30.0,4.0
27.7128586769104,159,0.0,30.0,4.0
27.722665071487427,4095,0.0,30.0,4.0
27.73082733154297,128,0.0,30.0,4.0
27.73784351348877,4095,0.0,30.0,4.0
27.745851039886475,131,0.0,30.0,4.0
27.755568981170654,4095,0.0,30.0,4.0
27.765584230422974,60,0.0,30.0,4.0
27.77558445930481,4095,0.0,30.0,4.0
27.786690950393677,0,0.0,30.0,4.0
27.79767894744873,4095,0.0,30.0,4.0
27.81192684173584,55,0.0,30.0,4.0
27.815144777297974,4095,0.0,30.0,4.0
27.825188398361206,36,0.0,30.0,4.0
27.835155725479126,4095,0.0,30.0,4.0
27.845157384872437,23,0.0,30.0,4.0
27.855156660079956,4095,0.0,30.0,4.0
27.865156173706055,0,0.0,30.0,4.0
27.87515640258789,4095,0.0,30.0,4.0
27.88515615463257,0,0.0,30.0,4.0
27.895156383514404,4095,0.0,30.0,4.0
27.9051570892334,0,0.0,30.0,4.0
27.915167331695557,4095,0.0,30.0,4.0
27.932374477386475,0,0.0,30.0,4.0
27.937817335128784,4095,0.0,30.0,4.0
27.946780920028687,0,0.0,30.0,4.0
27.956013917922974,4095,0.0,30.0,4.0
27.971139430999756,0,0.0,30.0,4.0
27.98116636276245,4095,0.0,30.0,4.0
27.992344856262207,0,0.0,30.0,4.0
27.998056650161743,4049,0.0,30.0,4.0
28.008060216903687,50,0.0,30.0,4.0
28.019090175628662,4095,0.0,30.0,4.0
28.029207468032837,143,0.0,30.0,4.0
28.040160179138184,677,0.0,30.0,4.0
28.0524742603302,50,0.0,30.0,4.0
28.06247854232788,0,0.0,30.0,4.0
28.072033643722534,0,0.0,30.0,4.0
28.082029342651367,0,0.0,30.0,4.0
28.084025144577026,0,0.0,30.0,4.0
28.094394207000732,0,0.0,30.0,4.0
28.104365825653076,0,0.0,30.0,4.0
28.114366054534912,0,0.0,30.0,4.0
28.131325721740723,0,0.0,30.0,4.0
28.141780138015747,0,0.0,30.0,4.0
28.152361631393433,0,0.0,30.0,4.0
28.16232681274414,0,0.0,30.0,4.0
28.172064304351807,0,0.0,30.0,4.0
28.181068897247314,0,0.0,30.0,4.0
28.18777894973755,0,0.0,30.0,4.0
28.197798013687134,0,0.0,30.0,4.0
28.207810640335083,0,0.0,30.0,4.0
28.217798471450806,0,0.0,30.0,4.0
28.227811574935913,0,0.0,30.0,4.0
28.24211049079895,0,0.0,30.0,4.0
28.252183437347412,0,0.0,30.0,4.0
28.261627435684204,0,0.0,30.0,4.0
28.265960693359375,0,0.0,30.0,4.0
28.279969692230225,0,0.0,30.0,4.0
28.28997802734375,0,0.0,30.0,4.0
28.299977779388428,0,0.0,30.0,4.0
28.312000513076782,0,0.0,30.0,4.0
28.32077693939209,0,0.0,30.0,4.0
28.33263325691223,0,0.0,30.0,4.0
28.335965871810913,0,0.0,30.0,4.0
28.351789951324463,0,0.0,30.0,4.0
28.359225034713745,0,0.0,30.0,4.0
28.372684001922607,0,0.0,30.0,4.0
28.382532119750977,0,0.0,30.0,4.0
28.39202046394348,0,0.0,30.0,4.0
28.40181303024292,0,0.0,30.0,4.0
28.405441761016846,0,0.0,30.0,4.0
28.422714471817017,53,0.0,30.0,4.0
28.432726860046387,0,0.0,30.0,4.0
28.442726850509644,0,0.0,30.0,4.0
28.45272421836853,1063,0.0,30.0,4.0
28.46272349357605,19,0.0,30.0,4.0
28.472726583480835,2589,0.0,30.0,4.0
28.482729196548462,49,0.0,30.0,4.0
28.492724418640137,2381,0.0,30.0,4.0
28.502853393554688,129,0.0,30.0,4.0
28.51068377494812,2218,0.0,30.0,4.0
28.516058444976807,142,0.0,30.0,4.0
28.52606773376465,1200,0.0,30.0,4.0
28.536328315734863,30,0.0,30.0,4.0
28.54722499847412,672,0.0,30.0,4.0
28.56250524520874,9,0.0,30.0,4.0
28.572876453399658,397,0.0,30.0,4.0
28.578259229660034,0,0.0,30.0,4.0
28.592673540115356,80,0.0,30.0,4.0
28.60068702697754,40,0.0,30.0,4.0
28.604355812072754,0,0.0,30.0,4.0
28.62246870994568,0,0.0,30.0,4.0
28.632551193237305,0,0.0,30.0,4.0
28.64250659942627,0,0.0,30.0,4.0
28.652541875839233,0,0.0,30.0,4.0
28.65354013442993,0,0.0,30.0,4.0
28.663557767868042,0,0.0,30.0,4.0
28.673561334609985,193,0.0,30.0,4.0
28.683561325073242,7,0.0,30.0,4.0
28.69356107711792,171,0.0,30.0,4.0
28.70355772972107,53,0.0,30.0,4.0
28.713562726974487,139,0.0,30.0,4.0
28.723557710647583,53,0.0,30.0,4.0
28.73355793952942,90,0.0,30.0,4.0
28.743557929992676,48,0.0,30.0,4.0
28.75356149673462,80,0.0,30.0,4.0
28.771996021270752,49,0.0,30.0,4.0
28.774099349975586,85,0.0,30.0,4.0
28.78803849220276,24,0.0,30.0,4.0
28.80293846130371,80,0.0,30.0,4.0
28.804351806640625,12,0.0,30.0,4.0
28.822508335113525,49,0.0,30.0,4.0
28.83151888847351,0,0.0,30.0,4.0
28.839561700820923,1,0.0,30.0,4.0
28.84956407546997,0,0.0,30.0,4.0
28.859564304351807,0,0.0,30.0,4.0
28.86968731880188,0,0.0,30.0,4.0
28.880698204040527,0,0.0,30.0,4.0
28.890676021575928,0,0.0,30.0,4.0
28.900676012039185,0,0.0,30.0,4.0
28.912676334381104,0,0.0,30.0,4.0
28.922686100006104,0,0.0,30.0,4.0
28.93268632888794,0,0.0,30.0,4.0
28.9427433013916,0,0.0,30.0,4.0
28.952685832977295,0,0.0,30.0,4.0
28.96268630027771,0,0.0,30.0,4.0
28.9726881980896,0,0.0,30.0,4.0
28.984042644500732,0,0.0,30.0,4.0
28.99239730834961,0,0.0,30.0,4.0
29.00064444541931,0,0.0,30.0,4.0
29.010605335235596,0,0.0,30.0,4.0
29.02245306968689,0,0.0,30.0,4.0
29.03054141998291,0,0.0,30.0,4.0
29.03853178024292,0,0.0,30.0,4.0
29.046773433685303,0,0.0,30.0,4.0
29.05574607849121,0,0.0,30.0,4.0
29.065749406814575,0,0.0,30.0,4.0
29.07575297355652,0,0.0,30.0,4.0
29.085761785507202,0,0.0,30.0,4.0
29.09848141670227,0,0.0,30.0,4.0
29.108513116836548,0,0.0,30.0,4.0
29.118513345718384,0,0.0,30.0,4.0
29.132710218429565,0,0.0,30.0,4.0
29.14272117614746,0,0.0,30.0,4.0
29.1527202129364,0,0.0,30.0,4.0
29.162721872329712,0,0.0,30.0,4.0
29.17296838760376,2123,0.0,30.0,4.0
29.173972129821777,0,0.0,30.0,4.0
29.183968544006348,534,0.0,30.0,4.0
29.201810836791992,0,0.0,30.0,4.0
29.212599277496338,0,0.0,30.0,4.0
29.22096538543701,0,0.0,30.0,4.0
29.230677604675293,0,0.0,30.0,4.0
29.242709636688232,0,0.0,30.0,4.0
29.25074338912964,0,0.0,30.0,4.0
29.262715816497803,0,0.0,30.0,4.0
29.27273154258728,0,0.0,30.0,4.0
29.28285312652588,0,0.0,30.0,4.0
29.28385639190674,0,0.0,30.0,4.0
29.29390239715576,240,0.0,30.0,4.0
29.30389904975891,2386,0.0,30.0,4.0
29.31603479385376,348,0.0,30.0,4.0
29.326050758361816,2609,0.0,30.0,4.0
29.336061477661133,437,0.0,30.0,4.0
29.346054792404175,2870,0.0,30.0,4.0
29.35605478286743,225,0.0,30.0,4.0
29.366055011749268,518,0.0,30.0,4.0
29.376055240631104,94,0.0,30.0,4.0
29.386054754257202,0,0.0,30.0,4.0
29.396054983139038,37,0.0,30.0,4.0
29.406058311462402,1299,0.0,30.0,4.0
29.422775745391846,0,0.0,30.0,4.0
29.432003021240234,2809,0.0,30.0,4.0
29.43948483467102,216,0.0,30.0,4.0
29.453369617462158,2739,0.0,30.0,4.0
29.45808506011963,257,0.0,30.0,4.0
29.471073150634766,2772,0.0,30.0,4.0
29.48195791244507,0,0.0,30.0,4.0
29.49271583557129,2773,0.0,30.0,4.0
29.502734184265137,0,0.0,30.0,4.0
29.512726068496704,2357,0.0,30.0,4.0
29.52272605895996,0,0.0,30.0,4.0
29.524298429489136,2783,0.0,30.0,4.0
29.541876077651978,0,0.0,30.0,4.0
29.54691505432129,1469,0.0,30.0,4.0
29.562687397003174,0,0.0,30.0,4.0
29.572697162628174,1940,0.0,30.0,4.0
29.582706451416016,0,0.0,30.0,4.0
29.59269905090332,1454,0.0,30.0,4.0
29.60204029083252,0,0.0,30.0,4.0
29.611299514770508,2308,0.0,30.0,4.0
29.62203598022461,0,0.0,30.0,4.0
29.62594985961914,2679,0.0,30.0,4.0
29.642195224761963,0,0.0,30.0,4.0
29.653496980667114,2381,0.0,30.0,4.0
29.661500930786133,0,0.0,30.0,4.0
29.669946908950806,1377,0.0,30.0,4.0
29.68124747276306,0,0.0,30.0,4.0
29.68693995475769,1164,0.0,30.0,4.0
29.69494080543518,0,0.0,30.0,4.0
29.71289849281311,1275,0.0,30.0,4.0
29.71966242790222,0,0.0,30.0,4.0
29.724039554595947,1177,0.0,30.0,4.0
29.74141788482666,0,0.0,30.0,4.0
29.75294256210327,1472,0.0,30.0,4.0
29.75394105911255,0,0.0,30.0,4.0
29.772825956344604,1331,0.0,30.0,4.0
29.778576612472534,0,0.0,30.0,4.0
29.79235291481018,1357,0.0,30.0,4.0
29.8026704788208,0,0.0,30.0,4.0
29.81232976913452,1178,0.0,30.0,4.0
29.81568956375122,0,0.0,30.0,4.0
29.832488536834717,322,0.0,30.0,4.0
29.842599868774414,0,0.0,30.0,4.0
29.852396726608276,859,0.0,30.0,4.0
29.86276149749756,0,0.0,30.0,4.0
29.872270822525024,1089,0.0,30.0,4.0
29.879663705825806,0,0.0,30.0,4.0
29.8889422416687,416,0.0,30.0,4.0
29.89701533317566,0,0.0,30.0,4.0
29.912753343582153,424,0.0,30.0,4.0
29.922752141952515,0,0.0,30.0,4.0
29.932286739349365,2228,0.0,30.0,4.0
29.942312717437744,1022,0.0,30.0,4.0
29.95230507850647,2139,0.0,30.0,4.0
29.962302923202515,2434,0.0,30.0,4.0
29.972777843475342,2015,0.0,30.0,4.0
29.98282551765442,2495,0.0,30.0,4.0
29.992791414260864,1955,0.0,30.0,4.0
30.002867937088013,2402,0.0,30.0,4.0
