Timestamp,EMG Value,massage_speed,massage_duration,relaxment_level
0.0010097026824951172,1549,4.0,30.0,0.0
0.013671159744262695,4095,4.0,30.0,0.0
0.023720979690551758,1378,4.0,30.0,0.0
0.03371691703796387,4095,4.0,30.0,0.0
0.04535222053527832,1309,4.0,30.0,0.0
0.051018476486206055,4095,4.0,30.0,0.0
0.06112313270568848,1277,4.0,30.0,0.0
0.07112431526184082,4095,4.0,30.0,0.0
0.08112382888793945,1233,4.0,30.0,0.0
0.0911250114440918,4095,4.0,30.0,0.0
0.10610818862915039,1311,4.0,30.0,0.0
0.11559414863586426,4095,4.0,30.0,0.0
0.1165928840637207,1360,4.0,30.0,0.0
0.12661957740783691,4095,4.0,30.0,0.0
0.1366255283355713,1319,4.0,30.0,0.0
0.14661884307861328,4095,4.0,30.0,0.0
0.15661954879760742,1372,4.0,30.0,0.0
0.16662001609802246,4095,4.0,30.0,0.0
0.1795639991760254,1488,4.0,30.0,0.0
0.18957090377807617,4095,4.0,30.0,0.0
0.1995711326599121,906,4.0,30.0,0.0
0.21613097190856934,4095,4.0,30.0,0.0
0.2261519432067871,831,4.0,30.0,0.0
0.23122382164001465,4095,4.0,30.0,0.0
0.24546504020690918,615,4.0,30.0,0.0
0.253481388092041,4095,4.0,30.0,0.0
0.2622997760772705,640,4.0,30.0,0.0
0.27231287956237793,4095,4.0,30.0,0.0
0.2794642448425293,1712,4.0,30.0,0.0
0.2894728183746338,4095,4.0,30.0,0.0
0.2994728088378906,1957,4.0,30.0,0.0
0.311906099319458,4095,4.0,30.0,0.0
0.32282257080078125,1817,4.0,30.0,0.0
0.3361043930053711,4095,4.0,30.0,0.0
0.3461174964904785,1793,4.0,30.0,0.0
0.35611677169799805,4095,4.0,30.0,0.0
0.36638450622558594,1808,4.0,30.0,0.0
0.36738038063049316,4095,4.0,30.0,0.0
0.3786282539367676,1844,4.0,30.0,0.0
0.3886415958404541,4095,4.0,30.0,0.0
0.39864182472229004,1379,4.0,30.0,0.0
0.4142613410949707,4095,4.0,30.0,0.0
0.42574262619018555,1534,4.0,30.0,0.0
0.4316978454589844,4095,4.0,30.0,0.0
0.4406144618988037,443,4.0,30.0,0.0
0.45574069023132324,4095,4.0,30.0,0.0
0.4634408950805664,859,4.0,30.0,0.0
0.4714498519897461,4095,4.0,30.0,0.0
0.47908735275268555,2887,4.0,30.0,0.0
0.48865413665771484,4095,4.0,30.0,0.0
0.49669337272644043,4095,4.0,30.0,0.0
0.5080406665802002,4095,4.0,30.0,0.0
0.5180568695068359,4095,4.0,30.0,0.0
0.5280568599700928,4095,4.0,30.0,0.0
0.5393557548522949,4095,4.0,30.0,0.0
0.549370288848877,4095,4.0,30.0,0.0
0.5648717880249023,4095,4.0,30.0,0.0
0.5683767795562744,4095,4.0,30.0,0.0
0.5783877372741699,4095,4.0,30.0,0.0
0.5883920192718506,4095,4.0,30.0,0.0
0.598388671875,4095,4.0,30.0,0.0
0.6083900928497314,4095,4.0,30.0,0.0
0.6183886528015137,4095,4.0,30.0,0.0
0.6283876895904541,4095,4.0,30.0,0.0
0.6459751129150391,4095,4.0,30.0,0.0
0.6563386917114258,4095,4.0,30.0,0.0
0.6633977890014648,4095,4.0,30.0,0.0
0.6736593246459961,4095,4.0,30.0,0.0
0.6861042976379395,4095,4.0,30.0,0.0
0.6900248527526855,4095,4.0,30.0,0.0
0.7053990364074707,4095,4.0,30.0,0.0
0.7131080627441406,4095,4.0,30.0,0.0
0.7197721004486084,4095,4.0,30.0,0.0
0.7284879684448242,4095,4.0,30.0,0.0
0.7452068328857422,4095,4.0,30.0,0.0
0.7514894008636475,4095,4.0,30.0,0.0
0.7659506797790527,4095,4.0,30.0,0.0
0.7759783267974854,4095,4.0,30.0,0.0
0.7861161231994629,4095,4.0,30.0,0.0
0.7965295314788818,4095,4.0,30.0,0.0
0.8049488067626953,4095,4.0,30.0,0.0
0.815711498260498,4095,4.0,30.0,0.0
0.8213465213775635,3992,4.0,30.0,0.0
0.8348426818847656,4095,4.0,30.0,0.0
0.8458578586578369,4095,4.0,30.0,0.0
0.8520123958587646,4095,4.0,30.0,0.0
0.8656060695648193,3671,4.0,30.0,0.0
0.874025821685791,4095,4.0,30.0,0.0
0.8858897686004639,2962,4.0,30.0,0.0
0.8961484432220459,4095,4.0,30.0,0.0
0.9039931297302246,2474,4.0,30.0,0.0
0.9155819416046143,4095,4.0,30.0,0.0
0.9212183952331543,4095,4.0,30.0,0.0
0.9366188049316406,4095,4.0,30.0,0.0
0.9453859329223633,4067,4.0,30.0,0.0
0.9537668228149414,4095,4.0,30.0,0.0
0.9663817882537842,4095,4.0,30.0,0.0
0.9687085151672363,4095,4.0,30.0,0.0
0.9861466884613037,4095,4.0,30.0,0.0
0.9961824417114258,4095,4.0,30.0,0.0
1.0039808750152588,4095,4.0,30.0,0.0
1.0153698921203613,4095,4.0,30.0,0.0
1.0257973670959473,4095,4.0,30.0,0.0
1.0358495712280273,4095,4.0,30.0,0.0
1.045931339263916,4095,4.0,30.0,0.0
1.0556321144104004,4095,4.0,30.0,0.0
1.0654995441436768,4095,4.0,30.0,0.0
1.069289207458496,4095,4.0,30.0,0.0
1.0857946872711182,4095,4.0,30.0,0.0
1.0957145690917969,4095,4.0,30.0,0.0
1.106416940689087,2122,4.0,30.0,0.0
1.1162972450256348,4095,4.0,30.0,0.0
1.12009859085083,4095,4.0,30.0,0.0
1.1310722827911377,4095,4.0,30.0,0.0
1.145197868347168,4095,4.0,30.0,0.0
1.1508440971374512,4095,4.0,30.0,0.0
1.1661040782928467,2190,4.0,30.0,0.0
1.1739635467529297,4095,4.0,30.0,0.0
1.1813018321990967,2430,4.0,30.0,0.0
1.1959974765777588,4095,4.0,30.0,0.0
1.2061045169830322,2949,4.0,30.0,0.0
1.2126052379608154,4095,4.0,30.0,0.0
1.2200605869293213,4095,4.0,30.0,0.0
1.2285289764404297,4095,4.0,30.0,0.0
1.2442810535430908,3767,4.0,30.0,0.0
1.250758171081543,4095,4.0,30.0,0.0
1.265782117843628,1958,4.0,30.0,0.0
1.2736918926239014,4095,4.0,30.0,0.0
1.2819819450378418,2993,4.0,30.0,0.0
1.2961885929107666,4095,4.0,30.0,0.0
1.3056375980377197,3671,4.0,30.0,0.0
1.3157520294189453,4095,4.0,30.0,0.0
1.3262739181518555,1837,4.0,30.0,0.0
1.329277515411377,4095,4.0,30.0,0.0
1.346235752105713,3028,4.0,30.0,0.0
1.3562867641448975,4095,4.0,30.0,0.0
1.3654382228851318,2197,4.0,30.0,0.0
1.373110055923462,4095,4.0,30.0,0.0
1.3817505836486816,1966,4.0,30.0,0.0
1.3962430953979492,4095,4.0,30.0,0.0
1.3972363471984863,1896,4.0,30.0,0.0
1.411614179611206,4095,4.0,30.0,0.0
1.425955057144165,889,4.0,30.0,0.0
1.4285168647766113,4095,4.0,30.0,0.0
1.4451994895935059,2009,4.0,30.0,0.0
1.4552159309387207,4095,4.0,30.0,0.0
1.4662704467773438,2455,4.0,30.0,0.0
1.476102590560913,4095,4.0,30.0,0.0
1.4855899810791016,3119,4.0,30.0,0.0
1.4963901042938232,4095,4.0,30.0,0.0
1.4973869323730469,3662,4.0,30.0,0.0
1.516404390335083,4095,4.0,30.0,0.0
1.5255966186523438,1796,4.0,30.0,0.0
1.536134958267212,4095,4.0,30.0,0.0
1.5456922054290771,3277,4.0,30.0,0.0
1.5564067363739014,4095,4.0,30.0,0.0
1.5653762817382812,2704,4.0,30.0,0.0
1.5761871337890625,4095,4.0,30.0,0.0
1.5857763290405273,1790,4.0,30.0,0.0
1.595285415649414,4095,4.0,30.0,0.0
1.605661392211914,1571,4.0,30.0,0.0
1.615445613861084,4095,4.0,30.0,0.0
1.6256630420684814,587,4.0,30.0,0.0
1.6358833312988281,4095,4.0,30.0,0.0
1.6457109451293945,1112,4.0,30.0,0.0
1.6560149192810059,4095,4.0,30.0,0.0
1.666224479675293,962,4.0,30.0,0.0
1.6762564182281494,4095,4.0,30.0,0.0
1.6858108043670654,1284,4.0,30.0,0.0
1.6945438385009766,4095,4.0,30.0,0.0
1.706402063369751,1712,4.0,30.0,0.0
1.7161333560943604,4095,4.0,30.0,0.0
1.7258751392364502,1616,4.0,30.0,0.0
1.735896110534668,4095,4.0,30.0,0.0
1.7460932731628418,848,4.0,30.0,0.0
1.7559192180633545,4095,4.0,30.0,0.0
1.7655174732208252,573,4.0,30.0,0.0
1.771345615386963,4095,4.0,30.0,0.0
1.786205768585205,1278,4.0,30.0,0.0
1.7960481643676758,4095,4.0,30.0,0.0
1.8050620555877686,3216,4.0,30.0,0.0
1.8157289028167725,4095,4.0,30.0,0.0
1.8247599601745605,4095,4.0,30.0,0.0
1.8326003551483154,4095,4.0,30.0,0.0
1.8457586765289307,4095,4.0,30.0,0.0
1.8492794036865234,4095,4.0,30.0,0.0
1.8662986755371094,943,4.0,30.0,0.0
1.8717758655548096,4095,4.0,30.0,0.0
1.886005163192749,853,4.0,30.0,0.0
1.8956925868988037,4095,4.0,30.0,0.0
1.9063832759857178,906,4.0,30.0,0.0
1.9117281436920166,4095,4.0,30.0,0.0
1.9260320663452148,369,4.0,30.0,0.0
1.937356948852539,4095,4.0,30.0,0.0
1.9461967945098877,975,4.0,30.0,0.0
1.9559516906738281,4095,4.0,30.0,0.0
1.9661903381347656,208,4.0,30.0,0.0
1.9718434810638428,4095,4.0,30.0,0.0
1.979764699935913,2463,4.0,30.0,0.0
1.9951276779174805,4095,4.0,30.0,0.0
2.005495548248291,509,4.0,30.0,0.0
2.01644229888916,4095,4.0,30.0,0.0
2.026158094406128,697,4.0,30.0,0.0
2.0335514545440674,4095,4.0,30.0,0.0
2.0458948612213135,1203,4.0,30.0,0.0
2.056318521499634,4095,4.0,30.0,0.0
2.0645909309387207,1346,4.0,30.0,0.0
2.0729544162750244,4095,4.0,30.0,0.0
2.0862653255462646,1477,4.0,30.0,0.0
2.095136880874634,4095,4.0,30.0,0.0
2.1020662784576416,816,4.0,30.0,0.0
2.116286516189575,4095,4.0,30.0,0.0
2.125861406326294,881,4.0,30.0,0.0
2.1325013637542725,4095,4.0,30.0,0.0
2.145704984664917,1466,4.0,30.0,0.0
2.156080722808838,4095,4.0,30.0,0.0
2.1657052040100098,2669,4.0,30.0,0.0
2.1717026233673096,4095,4.0,30.0,0.0
2.1860456466674805,3402,4.0,30.0,0.0
2.1963889598846436,4095,4.0,30.0,0.0
2.202512502670288,4095,4.0,30.0,0.0
2.2163710594177246,4095,4.0,30.0,0.0
2.2259347438812256,4095,4.0,30.0,0.0
2.2317824363708496,4095,4.0,30.0,0.0
2.2459633350372314,4095,4.0,30.0,0.0
2.2561044692993164,4095,4.0,30.0,0.0
2.261732339859009,4095,4.0,30.0,0.0
2.2717528343200684,4095,4.0,30.0,0.0
2.286391496658325,4095,4.0,30.0,0.0
2.296539068222046,4095,4.0,30.0,0.0
2.296539068222046,4095,4.0,30.0,0.0
2.3115527629852295,4095,4.0,30.0,0.0
2.3236539363861084,4095,4.0,30.0,0.0
2.3336706161499023,4095,4.0,30.0,0.0
2.338995933532715,4095,4.0,30.0,0.0
2.3563332557678223,4095,4.0,30.0,0.0
2.36576247215271,4095,4.0,30.0,0.0
2.368847131729126,4095,4.0,30.0,0.0
2.3797800540924072,2846,4.0,30.0,0.0
2.3940837383270264,4095,4.0,30.0,0.0
2.4026546478271484,2362,4.0,30.0,0.0
2.4093873500823975,4095,4.0,30.0,0.0
2.4248387813568115,1141,4.0,30.0,0.0
2.4312844276428223,4095,4.0,30.0,0.0
2.444995164871216,874,4.0,30.0,0.0
2.4554333686828613,4095,4.0,30.0,0.0
2.4657270908355713,1149,4.0,30.0,0.0
2.471799612045288,4095,4.0,30.0,0.0
2.4859588146209717,1235,4.0,30.0,0.0
2.4962775707244873,4095,4.0,30.0,0.0
2.5060994625091553,1321,4.0,30.0,0.0
2.516343593597412,4095,4.0,30.0,0.0
2.5222392082214355,1305,4.0,30.0,0.0
2.5309035778045654,4095,4.0,30.0,0.0
2.545935869216919,1201,4.0,30.0,0.0
2.555783987045288,4095,4.0,30.0,0.0
2.566375970840454,1379,4.0,30.0,0.0
2.572509527206421,4095,4.0,30.0,0.0
2.585846424102783,1047,4.0,30.0,0.0
2.5956342220306396,4095,4.0,30.0,0.0
2.6066484451293945,1168,4.0,30.0,0.0
2.6161386966705322,4095,4.0,30.0,0.0
2.622983694076538,1423,4.0,30.0,0.0
2.6363131999969482,4095,4.0,30.0,0.0
2.645987033843994,1829,4.0,30.0,0.0
2.6548359394073486,4095,4.0,30.0,0.0
2.665522813796997,1611,4.0,30.0,0.0
2.676185369491577,4095,4.0,30.0,0.0
2.6858062744140625,1139,4.0,30.0,0.0
2.6961591243743896,4095,4.0,30.0,0.0
2.7064661979675293,1475,4.0,30.0,0.0
2.7157576084136963,4095,4.0,30.0,0.0
2.7221720218658447,1232,4.0,30.0,0.0
2.73641300201416,3212,4.0,30.0,0.0
2.746408462524414,1623,4.0,30.0,0.0
2.7563960552215576,2574,4.0,30.0,0.0
2.7659313678741455,1074,4.0,30.0,0.0
2.776726007461548,4095,4.0,30.0,0.0
2.7858526706695557,1778,4.0,30.0,0.0
2.7963039875030518,4095,4.0,30.0,0.0
2.800916910171509,1625,4.0,30.0,0.0
2.8155627250671387,4095,4.0,30.0,0.0
2.8258285522460938,1499,4.0,30.0,0.0
2.8357670307159424,4095,4.0,30.0,0.0
2.8462042808532715,1143,4.0,30.0,0.0
2.8557026386260986,4095,4.0,30.0,0.0
2.8658130168914795,917,4.0,30.0,0.0
2.8758625984191895,4095,4.0,30.0,0.0
2.8860626220703125,790,4.0,30.0,0.0
2.8962769508361816,4095,4.0,30.0,0.0
2.9060237407684326,815,4.0,30.0,0.0
2.9157943725585938,4095,4.0,30.0,0.0
2.9222166538238525,826,4.0,30.0,0.0
2.935969352722168,4095,4.0,30.0,0.0
2.9458916187286377,717,4.0,30.0,0.0
2.9546711444854736,4095,4.0,30.0,0.0
2.9657740592956543,656,4.0,30.0,0.0
2.9717414379119873,4095,4.0,30.0,0.0
2.9860172271728516,578,4.0,30.0,0.0
2.9959447383880615,4095,4.0,30.0,0.0
3.0057456493377686,528,4.0,30.0,0.0
3.015627384185791,4095,4.0,30.0,0.0
3.022097587585449,733,4.0,30.0,0.0
3.035541296005249,4095,4.0,30.0,0.0
3.043972969055176,970,4.0,30.0,0.0
3.0563321113586426,4095,4.0,30.0,0.0
3.065892457962036,480,4.0,30.0,0.0
3.076246500015259,4095,4.0,30.0,0.0
3.085878372192383,2943,4.0,30.0,0.0
3.095796823501587,4095,4.0,30.0,0.0
3.1067700386047363,4095,4.0,30.0,0.0
3.1155195236206055,4095,4.0,30.0,0.0
3.122800350189209,4095,4.0,30.0,0.0
3.136429786682129,4095,4.0,30.0,0.0
3.1461260318756104,4095,4.0,30.0,0.0
3.1553313732147217,4095,4.0,30.0,0.0
3.166386365890503,4095,4.0,30.0,0.0
3.175607681274414,4095,4.0,30.0,0.0
3.1856331825256348,4095,4.0,30.0,0.0
3.1960535049438477,4095,4.0,30.0,0.0
3.2061822414398193,4095,4.0,30.0,0.0
3.216259241104126,4095,4.0,30.0,0.0
3.226140260696411,4095,4.0,30.0,0.0
3.2361741065979004,4095,4.0,30.0,0.0
3.2458856105804443,4095,4.0,30.0,0.0
3.254324436187744,4095,4.0,30.0,0.0
3.2656800746917725,4095,4.0,30.0,0.0
3.2707273960113525,4095,4.0,30.0,0.0
3.2863619327545166,4095,4.0,30.0,0.0
3.2962124347686768,4095,4.0,30.0,0.0
3.306452989578247,1128,4.0,30.0,0.0
3.3161003589630127,4095,4.0,30.0,0.0
3.326399326324463,488,4.0,30.0,0.0
3.3357937335968018,4095,4.0,30.0,0.0
3.3462069034576416,4095,4.0,30.0,0.0
3.3564369678497314,3567,4.0,30.0,0.0
3.3661553859710693,4095,4.0,30.0,0.0
3.3763277530670166,4095,4.0,30.0,0.0
3.3854522705078125,4095,4.0,30.0,0.0
3.396207571029663,4095,4.0,30.0,0.0
3.405405282974243,4095,4.0,30.0,0.0
3.416116952896118,4095,4.0,30.0,0.0
3.426424026489258,4095,4.0,30.0,0.0
3.4352264404296875,4095,4.0,30.0,0.0
3.445829391479492,4095,4.0,30.0,0.0
3.455472946166992,4095,4.0,30.0,0.0
3.4656729698181152,4095,4.0,30.0,0.0
3.475271463394165,4095,4.0,30.0,0.0
3.486187696456909,4095,4.0,30.0,0.0
3.4962146282196045,4095,4.0,30.0,0.0
3.5064406394958496,4095,4.0,30.0,0.0
3.515957832336426,4095,4.0,30.0,0.0
3.52541184425354,4095,4.0,30.0,0.0
3.5359649658203125,4095,4.0,30.0,0.0
3.5453240871429443,4095,4.0,30.0,0.0
3.550832748413086,4095,4.0,30.0,0.0
3.5655710697174072,4095,4.0,30.0,0.0
3.5763981342315674,4095,4.0,30.0,0.0
3.586301565170288,4095,4.0,30.0,0.0
3.5962154865264893,4095,4.0,30.0,0.0
3.6064562797546387,4095,4.0,30.0,0.0
3.616262674331665,4095,4.0,30.0,0.0
3.6227190494537354,4095,4.0,30.0,0.0
3.636108875274658,1235,4.0,30.0,0.0
3.6457839012145996,1158,4.0,30.0,0.0
3.655588388442993,471,4.0,30.0,0.0
3.665374279022217,75,4.0,30.0,0.0
3.6759414672851562,51,4.0,30.0,0.0
3.6861116886138916,4095,4.0,30.0,0.0
3.696272373199463,4095,4.0,30.0,0.0
3.7055935859680176,4095,4.0,30.0,0.0
3.715837240219116,4095,4.0,30.0,0.0
3.726463794708252,4095,4.0,30.0,0.0
3.7362592220306396,4095,4.0,30.0,0.0
3.7460296154022217,4095,4.0,30.0,0.0
3.7563962936401367,4095,4.0,30.0,0.0
3.7665042877197266,4095,4.0,30.0,0.0
3.774517297744751,4095,4.0,30.0,0.0
3.7863659858703613,4095,4.0,30.0,0.0
3.7954025268554688,4095,4.0,30.0,0.0
3.8063673973083496,4095,4.0,30.0,0.0
3.81187105178833,4095,4.0,30.0,0.0
3.826362133026123,4095,4.0,30.0,0.0
3.836345911026001,4095,4.0,30.0,0.0
3.8453288078308105,4095,4.0,30.0,0.0
3.855252504348755,4095,4.0,30.0,0.0
3.8657283782958984,4095,4.0,30.0,0.0
3.8763575553894043,4095,4.0,30.0,0.0
3.886481761932373,4095,4.0,30.0,0.0
3.8962361812591553,4095,4.0,30.0,0.0
3.906367778778076,4095,4.0,30.0,0.0
3.9161438941955566,4095,4.0,30.0,0.0
3.9196438789367676,4095,4.0,30.0,0.0
3.935471296310425,3263,4.0,30.0,0.0
3.9457006454467773,4095,4.0,30.0,0.0
3.95470929145813,0,4.0,30.0,0.0
3.9663705825805664,4095,4.0,30.0,0.0
3.974865436553955,0,4.0,30.0,0.0
3.982757329940796,4095,4.0,30.0,0.0
3.995832681655884,114,4.0,30.0,0.0
4.006538152694702,4095,4.0,30.0,0.0
4.016398668289185,567,4.0,30.0,0.0
4.021254062652588,4095,4.0,30.0,0.0
4.035952568054199,4095,4.0,30.0,0.0
4.046240568161011,4095,4.0,30.0,0.0
4.055741310119629,4095,4.0,30.0,0.0
4.06645131111145,4095,4.0,30.0,0.0
4.0764546394348145,4095,4.0,30.0,0.0
4.086440086364746,4095,4.0,30.0,0.0
4.09572696685791,4095,4.0,30.0,0.0
4.105978965759277,4095,4.0,30.0,0.0
4.116453170776367,4095,4.0,30.0,0.0
4.125413417816162,4095,4.0,30.0,0.0
4.136394262313843,4095,4.0,30.0,0.0
4.146118879318237,4095,4.0,30.0,0.0
4.156259298324585,4095,4.0,30.0,0.0
4.165400981903076,4095,4.0,30.0,0.0
4.175487518310547,4095,4.0,30.0,0.0
4.1808695793151855,4095,4.0,30.0,0.0
4.195830821990967,4095,4.0,30.0,0.0
4.205434560775757,4095,4.0,30.0,0.0
4.215410470962524,4095,4.0,30.0,0.0
4.225461006164551,4095,4.0,30.0,0.0
4.2365031242370605,4095,4.0,30.0,0.0
4.246131420135498,4095,4.0,30.0,0.0
4.25607705116272,4095,4.0,30.0,0.0
4.26559042930603,4095,4.0,30.0,0.0
4.2731664180755615,4095,4.0,30.0,0.0
4.281118392944336,4095,4.0,30.0,0.0
4.296416997909546,990,4.0,30.0,0.0
4.304728746414185,0,4.0,30.0,0.0
4.315474987030029,553,4.0,30.0,0.0
4.326439619064331,2597,4.0,30.0,0.0
4.335883378982544,1201,4.0,30.0,0.0
4.346145391464233,386,4.0,30.0,0.0
4.355493068695068,4095,4.0,30.0,0.0
4.365433931350708,4095,4.0,30.0,0.0
4.375484228134155,4095,4.0,30.0,0.0
4.386448860168457,4095,4.0,30.0,0.0
4.396235704421997,4095,4.0,30.0,0.0
4.406416177749634,4095,4.0,30.0,0.0
4.4154863357543945,4095,4.0,30.0,0.0
4.42654013633728,4095,4.0,30.0,0.0
4.435436248779297,4095,4.0,30.0,0.0
4.445470333099365,4095,4.0,30.0,0.0
4.450078964233398,4095,4.0,30.0,0.0
4.465785980224609,4095,4.0,30.0,0.0
4.4764404296875,4095,4.0,30.0,0.0
4.48547887802124,4095,4.0,30.0,0.0
4.49604868888855,4095,4.0,30.0,0.0
4.506442308425903,4095,4.0,30.0,0.0
4.5147645473480225,4095,4.0,30.0,0.0
4.526407718658447,4095,4.0,30.0,0.0
4.536541700363159,4095,4.0,30.0,0.0
4.54621958732605,4095,4.0,30.0,0.0
4.555392503738403,4095,4.0,30.0,0.0
4.565899133682251,4095,4.0,30.0,0.0
4.566900014877319,2095,4.0,30.0,0.0
4.582502126693726,4095,4.0,30.0,0.0
4.595486164093018,854,4.0,30.0,0.0
4.604621171951294,0,4.0,30.0,0.0
4.614781141281128,0,4.0,30.0,0.0
4.619675159454346,2,4.0,30.0,0.0
4.634958267211914,0,4.0,30.0,0.0
4.644992828369141,0,4.0,30.0,0.0
4.65636134147644,114,4.0,30.0,0.0
4.66442608833313,0,4.0,30.0,0.0
4.674315452575684,0,4.0,30.0,0.0
4.686169624328613,4095,4.0,30.0,0.0
4.696215629577637,336,4.0,30.0,0.0
4.704851388931274,0,4.0,30.0,0.0
4.711462497711182,0,4.0,30.0,0.0
4.725579261779785,68,4.0,30.0,0.0
4.7345359325408936,2096,4.0,30.0,0.0
4.744675397872925,0,4.0,30.0,0.0
4.756587982177734,1638,4.0,30.0,0.0
4.766147136688232,407,4.0,30.0,0.0
4.776068449020386,2003,4.0,30.0,0.0
4.785829067230225,2750,4.0,30.0,0.0
4.79525899887085,1745,4.0,30.0,0.0
4.806161403656006,1419,4.0,30.0,0.0
4.8158652782440186,1650,4.0,30.0,0.0
4.82561182975769,831,4.0,30.0,0.0
4.835472345352173,2234,4.0,30.0,0.0
4.846258640289307,876,4.0,30.0,0.0
4.856468439102173,1965,4.0,30.0,0.0
4.865527153015137,2266,4.0,30.0,0.0
4.873588800430298,2281,4.0,30.0,0.0
4.886107921600342,1661,4.0,30.0,0.0
4.896172046661377,1933,4.0,30.0,0.0
4.905792474746704,1739,4.0,30.0,0.0
4.915459871292114,1861,4.0,30.0,0.0
4.926074981689453,2271,4.0,30.0,0.0
4.936153888702393,1056,4.0,30.0,0.0
4.945570468902588,4095,4.0,30.0,0.0
4.955750226974487,1353,4.0,30.0,0.0
4.965512990951538,3133,4.0,30.0,0.0
4.9756457805633545,1328,4.0,30.0,0.0
4.985922336578369,4054,4.0,30.0,0.0
4.9961934089660645,1339,4.0,30.0,0.0
5.0055060386657715,3895,4.0,30.0,0.0
5.0156190395355225,967,4.0,30.0,0.0
5.026293039321899,4095,4.0,30.0,0.0
5.035794258117676,855,4.0,30.0,0.0
5.046276569366455,4095,4.0,30.0,0.0
5.056440830230713,974,4.0,30.0,0.0
5.065849542617798,311,4.0,30.0,0.0
5.076383829116821,2160,4.0,30.0,0.0
5.086066722869873,583,4.0,30.0,0.0
5.09636926651001,2300,4.0,30.0,0.0
5.104975700378418,0,4.0,30.0,0.0
5.115705966949463,2781,4.0,30.0,0.0
5.124391317367554,0,4.0,30.0,0.0
5.135860443115234,2105,4.0,30.0,0.0
5.14516806602478,0,4.0,30.0,0.0
5.155075788497925,0,4.0,30.0,0.0
5.1647608280181885,0,4.0,30.0,0.0
5.17546820640564,2677,4.0,30.0,0.0
5.179786443710327,3902,4.0,30.0,0.0
5.195027828216553,2007,4.0,30.0,0.0
5.20643949508667,1182,4.0,30.0,0.0
5.216397762298584,2611,4.0,30.0,0.0
5.226078271865845,2368,4.0,30.0,0.0
5.236387014389038,2445,4.0,30.0,0.0
5.244523525238037,4095,4.0,30.0,0.0
5.256450653076172,1283,4.0,30.0,0.0
5.265480041503906,4095,4.0,30.0,0.0
5.276889324188232,1651,4.0,30.0,0.0
5.286381483078003,4095,4.0,30.0,0.0
5.295304775238037,132,4.0,30.0,0.0
5.30228590965271,4095,4.0,30.0,0.0
5.313005208969116,1447,4.0,30.0,0.0
5.326111555099487,4095,4.0,30.0,0.0
5.335600852966309,849,4.0,30.0,0.0
5.345701456069946,4095,4.0,30.0,0.0
5.356253385543823,1022,4.0,30.0,0.0
5.366281986236572,4095,4.0,30.0,0.0
5.376444578170776,1125,4.0,30.0,0.0
5.38588547706604,4095,4.0,30.0,0.0
5.396346092224121,1460,4.0,30.0,0.0
5.405429363250732,4095,4.0,30.0,0.0
5.4154345989227295,1368,4.0,30.0,0.0
5.4261298179626465,4095,4.0,30.0,0.0
5.436447858810425,1589,4.0,30.0,0.0
5.446620941162109,4095,4.0,30.0,0.0
5.455493927001953,1104,4.0,30.0,0.0
5.4625914096832275,4095,4.0,30.0,0.0
5.476362466812134,1008,4.0,30.0,0.0
5.486432313919067,4095,4.0,30.0,0.0
5.496483564376831,987,4.0,30.0,0.0
5.505456924438477,4095,4.0,30.0,0.0
5.516405344009399,1053,4.0,30.0,0.0
5.525452375411987,4095,4.0,30.0,0.0
5.536003589630127,787,4.0,30.0,0.0
5.54622745513916,4095,4.0,30.0,0.0
5.556544303894043,2083,4.0,30.0,0.0
5.565449953079224,4095,4.0,30.0,0.0
5.57597279548645,1614,4.0,30.0,0.0
5.586488485336304,4095,4.0,30.0,0.0
5.595434665679932,781,4.0,30.0,0.0
5.606488227844238,4095,4.0,30.0,0.0
5.609591960906982,499,4.0,30.0,0.0
5.626478910446167,4095,4.0,30.0,0.0
5.636463642120361,375,4.0,30.0,0.0
5.646502256393433,4095,4.0,30.0,0.0
5.655660629272461,1552,4.0,30.0,0.0
5.665081977844238,0,4.0,30.0,0.0
5.675439357757568,1267,4.0,30.0,0.0
5.686296701431274,4095,4.0,30.0,0.0
5.695263385772705,2559,4.0,30.0,0.0
5.706478118896484,4095,4.0,30.0,0.0
5.715834617614746,258,4.0,30.0,0.0
5.726378679275513,4095,4.0,30.0,0.0
5.734557390213013,0,4.0,30.0,0.0
5.745240688323975,4095,4.0,30.0,0.0
5.756136894226074,119,4.0,30.0,0.0
5.765454292297363,4095,4.0,30.0,0.0
5.776416540145874,1127,4.0,30.0,0.0
5.785230398178101,4095,4.0,30.0,0.0
5.795170307159424,106,4.0,30.0,0.0
5.8048741817474365,4095,4.0,30.0,0.0
5.815237998962402,261,4.0,30.0,0.0
5.826777458190918,4095,4.0,30.0,0.0
5.8352484703063965,606,4.0,30.0,0.0
5.846352577209473,4095,4.0,30.0,0.0
5.855409860610962,1647,4.0,30.0,0.0
5.866136312484741,4095,4.0,30.0,0.0
5.875391006469727,2353,4.0,30.0,0.0
5.885837554931641,4095,4.0,30.0,0.0
5.896266222000122,1883,4.0,30.0,0.0
5.9043073654174805,564,4.0,30.0,0.0
5.915486812591553,704,4.0,30.0,0.0
5.925371885299683,749,4.0,30.0,0.0
5.93563437461853,1274,4.0,30.0,0.0
5.945264577865601,780,4.0,30.0,0.0
5.956211566925049,1718,4.0,30.0,0.0
5.965245962142944,528,4.0,30.0,0.0
5.98490047454834,1255,4.0,30.0,0.0
5.992890357971191,4095,4.0,30.0,0.0
5.995240211486816,961,4.0,30.0,0.0
6.005429267883301,1970,4.0,30.0,0.0
6.0156636238098145,767,4.0,30.0,0.0
6.024521112442017,4095,4.0,30.0,0.0
6.035409450531006,3026,4.0,30.0,0.0
6.046257734298706,4095,4.0,30.0,0.0
6.055268287658691,0,4.0,30.0,0.0
6.065630197525024,4095,4.0,30.0,0.0
6.075493812561035,400,4.0,30.0,0.0
6.085700035095215,4095,4.0,30.0,0.0
6.096339464187622,1776,4.0,30.0,0.0
6.105478048324585,4095,4.0,30.0,0.0
6.114944696426392,64,4.0,30.0,0.0
6.1191956996917725,4095,4.0,30.0,0.0
6.135248184204102,3168,4.0,30.0,0.0
6.145334005355835,4095,4.0,30.0,0.0
6.155628442764282,2445,4.0,30.0,0.0
6.166497707366943,4095,4.0,30.0,0.0
6.17629075050354,437,4.0,30.0,0.0
6.1854047775268555,4095,4.0,30.0,0.0
6.195597171783447,3947,4.0,30.0,0.0
6.2056801319122314,4095,4.0,30.0,0.0
6.216111660003662,649,4.0,30.0,0.0
6.22678017616272,4095,4.0,30.0,0.0
6.236025333404541,290,4.0,30.0,0.0
6.246215105056763,4095,4.0,30.0,0.0
6.256070613861084,384,4.0,30.0,0.0
6.266055107116699,1152,4.0,30.0,0.0
6.275489807128906,1339,4.0,30.0,0.0
6.284403324127197,2310,4.0,30.0,0.0
6.2963547706604,1641,4.0,30.0,0.0
6.303865671157837,455,4.0,30.0,0.0
6.316229581832886,1648,4.0,30.0,0.0
6.32547664642334,833,4.0,30.0,0.0
6.335785150527954,2112,4.0,30.0,0.0
6.345255374908447,4095,4.0,30.0,0.0
6.355506420135498,3359,4.0,30.0,0.0
6.3652753829956055,4095,4.0,30.0,0.0
6.375502347946167,3313,4.0,30.0,0.0
6.38494348526001,4095,4.0,30.0,0.0
6.39621639251709,2899,4.0,30.0,0.0
6.405437469482422,4095,4.0,30.0,0.0
6.414827346801758,18,4.0,30.0,0.0
6.4266650676727295,4095,4.0,30.0,0.0
6.43515157699585,0,4.0,30.0,0.0
6.445370674133301,4095,4.0,30.0,0.0
6.4548280239105225,0,4.0,30.0,0.0
6.466150999069214,4095,4.0,30.0,0.0
6.471472978591919,0,4.0,30.0,0.0
6.4855711460113525,4095,4.0,30.0,0.0
6.4932637214660645,0,4.0,30.0,0.0
6.506242275238037,4095,4.0,30.0,0.0
6.515282154083252,2735,4.0,30.0,0.0
6.520572662353516,4095,4.0,30.0,0.0
6.535995960235596,1115,4.0,30.0,0.0
6.546074390411377,4095,4.0,30.0,0.0
6.556440591812134,2363,4.0,30.0,0.0
6.566017389297485,128,4.0,30.0,0.0
6.575495958328247,359,4.0,30.0,0.0
6.585990905761719,2919,4.0,30.0,0.0
6.5962159633636475,1626,4.0,30.0,0.0
6.605663537979126,2523,4.0,30.0,0.0
6.614859104156494,1393,4.0,30.0,0.0
6.626497745513916,4095,4.0,30.0,0.0
6.635766983032227,1847,4.0,30.0,0.0
6.6462202072143555,4095,4.0,30.0,0.0
6.652320384979248,2894,4.0,30.0,0.0
6.6651952266693115,4095,4.0,30.0,0.0
6.675523042678833,2874,4.0,30.0,0.0
6.685502767562866,4095,4.0,30.0,0.0
6.696223735809326,3385,4.0,30.0,0.0
6.70555567741394,4095,4.0,30.0,0.0
6.716502904891968,3351,4.0,30.0,0.0
6.726562023162842,4095,4.0,30.0,0.0
6.728792190551758,3413,4.0,30.0,0.0
6.745221138000488,4095,4.0,30.0,0.0
6.756476163864136,3183,4.0,30.0,0.0
6.7606117725372314,4095,4.0,30.0,0.0
6.775527477264404,2975,4.0,30.0,0.0
6.786335706710815,4095,4.0,30.0,0.0
6.796188116073608,4095,4.0,30.0,0.0
6.805261135101318,4095,4.0,30.0,0.0
6.81595516204834,3218,4.0,30.0,0.0
6.826559543609619,4095,4.0,30.0,0.0
6.8362274169921875,1841,4.0,30.0,0.0
6.84581446647644,4095,4.0,30.0,0.0
6.855487585067749,2074,4.0,30.0,0.0
6.865438461303711,4095,4.0,30.0,0.0
6.874845027923584,950,4.0,30.0,0.0
6.8853676319122314,4095,4.0,30.0,0.0
6.895900249481201,1031,4.0,30.0,0.0
6.906490325927734,4095,4.0,30.0,0.0
6.916496276855469,1718,4.0,30.0,0.0
6.925530433654785,4095,4.0,30.0,0.0
6.935516595840454,2677,4.0,30.0,0.0
6.945590019226074,4095,4.0,30.0,0.0
6.955760478973389,3406,4.0,30.0,0.0
6.965511083602905,4095,4.0,30.0,0.0
6.975547552108765,2434,4.0,30.0,0.0
6.98651385307312,4095,4.0,30.0,0.0
6.996563673019409,3038,4.0,30.0,0.0
7.005527973175049,4095,4.0,30.0,0.0
7.01527738571167,1392,4.0,30.0,0.0
7.026548147201538,4095,4.0,30.0,0.0
7.034476041793823,542,4.0,30.0,0.0
7.0460028648376465,4095,4.0,30.0,0.0
7.051798343658447,480,4.0,30.0,0.0
7.065393686294556,4095,4.0,30.0,0.0
7.07056999206543,580,4.0,30.0,0.0
7.085356712341309,4095,4.0,30.0,0.0
7.09520149230957,711,4.0,30.0,0.0
7.10546875,4095,4.0,30.0,0.0
7.112978458404541,4095,4.0,30.0,0.0
7.126537084579468,4095,4.0,30.0,0.0
7.135705947875977,4095,4.0,30.0,0.0
7.145426511764526,4095,4.0,30.0,0.0
7.1524999141693115,4095,4.0,30.0,0.0
7.160653114318848,3611,4.0,30.0,0.0
7.176665782928467,4095,4.0,30.0,0.0
7.186526536941528,4095,4.0,30.0,0.0
7.195803880691528,4095,4.0,30.0,0.0
7.205269813537598,4095,4.0,30.0,0.0
7.215436220169067,4095,4.0,30.0,0.0
7.225255489349365,4095,4.0,30.0,0.0
7.23595929145813,4095,4.0,30.0,0.0
7.243984222412109,4095,4.0,30.0,0.0
7.25593113899231,4095,4.0,30.0,0.0
7.266050577163696,4095,4.0,30.0,0.0
7.276667594909668,4095,4.0,30.0,0.0
7.286489248275757,4095,4.0,30.0,0.0
7.295506477355957,4095,4.0,30.0,0.0
7.3054986000061035,4095,4.0,30.0,0.0
7.3125810623168945,4095,4.0,30.0,0.0
7.3265814781188965,4095,4.0,30.0,0.0
7.336492538452148,4095,4.0,30.0,0.0
7.345319747924805,4095,4.0,30.0,0.0
7.355298042297363,4095,4.0,30.0,0.0
7.36551308631897,4095,4.0,30.0,0.0
7.376504421234131,4095,4.0,30.0,0.0
7.381073236465454,4095,4.0,30.0,0.0
7.395633935928345,4095,4.0,30.0,0.0
7.405457019805908,4095,4.0,30.0,0.0
7.412583589553833,4095,4.0,30.0,0.0
7.4252707958221436,4095,4.0,30.0,0.0
7.435631036758423,4095,4.0,30.0,0.0
7.445778846740723,2931,4.0,30.0,0.0
7.456582307815552,4095,4.0,30.0,0.0
7.4654717445373535,3728,4.0,30.0,0.0
7.476515531539917,4095,4.0,30.0,0.0
7.48242449760437,2818,4.0,30.0,0.0
7.495678663253784,4095,4.0,30.0,0.0
7.50513219833374,1745,4.0,30.0,0.0
7.515597343444824,4095,4.0,30.0,0.0
7.52711820602417,1184,4.0,30.0,0.0
7.535578489303589,4095,4.0,30.0,0.0
7.546147584915161,1260,4.0,30.0,0.0
7.549133539199829,4095,4.0,30.0,0.0
7.565518856048584,1066,4.0,30.0,0.0
7.5755064487457275,4095,4.0,30.0,0.0
7.581734657287598,814,4.0,30.0,0.0
7.594607591629028,314,4.0,30.0,0.0
7.597304821014404,157,4.0,30.0,0.0
7.615335941314697,457,4.0,30.0,0.0
7.6253416538238525,131,4.0,30.0,0.0
7.630497694015503,487,4.0,30.0,0.0
7.645119905471802,112,4.0,30.0,0.0
7.649912595748901,498,4.0,30.0,0.0
7.664650201797485,54,4.0,30.0,0.0
7.673935174942017,400,4.0,30.0,0.0
7.681430101394653,30,4.0,30.0,0.0
7.694859743118286,339,4.0,30.0,0.0
7.697394132614136,0,4.0,30.0,0.0
7.715314149856567,592,4.0,30.0,0.0
7.725348472595215,16,4.0,30.0,0.0
7.733065366744995,589,4.0,30.0,0.0
7.744908332824707,0,4.0,30.0,0.0
7.749464273452759,461,4.0,30.0,0.0
7.764859914779663,0,4.0,30.0,0.0
7.775221109390259,401,4.0,30.0,0.0
7.78159499168396,139,4.0,30.0,0.0
7.795985698699951,4095,4.0,30.0,0.0
7.803198575973511,178,4.0,30.0,0.0
7.8157799243927,4095,4.0,30.0,0.0
7.816777229309082,214,4.0,30.0,0.0
7.836494445800781,4095,4.0,30.0,0.0
7.8454718589782715,260,4.0,30.0,0.0
7.850522994995117,4095,4.0,30.0,0.0
7.8650078773498535,608,4.0,30.0,0.0
7.876519680023193,4095,4.0,30.0,0.0
7.879820346832275,912,4.0,30.0,0.0
7.895767450332642,4095,4.0,30.0,0.0
7.899356365203857,843,4.0,30.0,0.0
7.915517091751099,4095,4.0,30.0,0.0
7.92551851272583,4095,4.0,30.0,0.0
7.935324668884277,4095,4.0,30.0,0.0
7.9458842277526855,4095,4.0,30.0,0.0
7.950030565261841,4095,4.0,30.0,0.0
7.9660210609436035,4095,4.0,30.0,0.0
7.97649884223938,4095,4.0,30.0,0.0
7.985445976257324,4095,4.0,30.0,0.0
7.995604753494263,4095,4.0,30.0,0.0
8.005491495132446,4095,4.0,30.0,0.0
8.016513586044312,4095,4.0,30.0,0.0
8.025534391403198,4095,4.0,30.0,0.0
8.035678148269653,4095,4.0,30.0,0.0
8.045653104782104,4095,4.0,30.0,0.0
8.05539584159851,4095,4.0,30.0,0.0
8.06598424911499,4095,4.0,30.0,0.0
8.075740337371826,4095,4.0,30.0,0.0
8.085288524627686,4095,4.0,30.0,0.0
8.095913887023926,4095,4.0,30.0,0.0
8.10611629486084,4095,4.0,30.0,0.0
8.115732669830322,4095,4.0,30.0,0.0
8.125825643539429,4095,4.0,30.0,0.0
8.135356903076172,4095,4.0,30.0,0.0
8.145913362503052,4095,4.0,30.0,0.0
8.155456304550171,4095,4.0,30.0,0.0
8.16538953781128,4095,4.0,30.0,0.0
8.17652678489685,4095,4.0,30.0,0.0
8.185300588607788,4095,4.0,30.0,0.0
8.195343971252441,4095,4.0,30.0,0.0
8.205243825912476,671,4.0,30.0,0.0
8.212581157684326,4095,4.0,30.0,0.0
8.217554092407227,191,4.0,30.0,0.0
8.229025602340698,4095,4.0,30.0,0.0
8.245185375213623,80,4.0,30.0,0.0
8.254982233047485,4095,4.0,30.0,0.0
8.263828754425049,48,4.0,30.0,0.0
8.27579379081726,4095,4.0,30.0,0.0
8.2807457447052,0,4.0,30.0,0.0
8.295177936553955,4095,4.0,30.0,0.0
8.305119276046753,493,4.0,30.0,0.0
8.314857244491577,4095,4.0,30.0,0.0
8.32643985748291,2134,4.0,30.0,0.0
8.329104661941528,4095,4.0,30.0,0.0
8.344107627868652,2386,4.0,30.0,0.0
8.355803966522217,4095,4.0,30.0,0.0
8.365457534790039,2543,4.0,30.0,0.0
8.367461442947388,4095,4.0,30.0,0.0
8.379017114639282,2530,4.0,30.0,0.0
8.395498514175415,2202,4.0,30.0,0.0
8.405491352081299,2486,4.0,30.0,0.0
8.41031813621521,887,4.0,30.0,0.0
8.4254732131958,2719,4.0,30.0,0.0
8.426472902297974,0,4.0,30.0,0.0
8.43648099899292,2743,4.0,30.0,0.0
8.447950839996338,66,4.0,30.0,0.0
8.45798921585083,2578,4.0,30.0,0.0
8.467989444732666,138,4.0,30.0,0.0
8.484685182571411,2210,4.0,30.0,0.0
8.495334386825562,143,4.0,30.0,0.0
8.505450010299683,1943,4.0,30.0,0.0
8.51057767868042,80,4.0,30.0,0.0
8.519803762435913,1436,4.0,30.0,0.0
8.527256488800049,82,4.0,30.0,0.0
8.53987455368042,770,4.0,30.0,0.0
8.555174827575684,77,4.0,30.0,0.0
8.565181255340576,350,4.0,30.0,0.0
8.575194358825684,48,4.0,30.0,0.0
8.585236072540283,18,4.0,30.0,0.0
8.586233377456665,64,4.0,30.0,0.0
8.596253395080566,2622,4.0,30.0,0.0
8.606260299682617,1701,4.0,30.0,0.0
8.617290258407593,2640,4.0,30.0,0.0
8.627299547195435,78,4.0,30.0,0.0
8.639696836471558,2630,4.0,30.0,0.0
8.649704456329346,17,4.0,30.0,0.0
8.665087938308716,2307,4.0,30.0,0.0
8.675113201141357,1664,4.0,30.0,0.0
8.67711591720581,1986,4.0,30.0,0.0
8.695284843444824,1168,4.0,30.0,0.0
8.70104193687439,1413,4.0,30.0,0.0
8.712172985076904,2467,4.0,30.0,0.0
8.720171213150024,838,4.0,30.0,0.0
8.727480411529541,2305,4.0,30.0,0.0
8.743534088134766,2004,4.0,30.0,0.0
8.747349739074707,2445,4.0,30.0,0.0
8.757365465164185,1924,4.0,30.0,0.0
8.769120931625366,2437,4.0,30.0,0.0
8.780092239379883,1833,4.0,30.0,0.0
8.790091514587402,2443,4.0,30.0,0.0
8.80018162727356,1807,4.0,30.0,0.0
8.811241149902344,1590,4.0,30.0,0.0
8.823854684829712,1691,4.0,30.0,0.0
8.82945466041565,1371,4.0,30.0,0.0
8.839474201202393,1707,4.0,30.0,0.0
8.849491834640503,1778,4.0,30.0,0.0
8.859474420547485,1639,4.0,30.0,0.0
8.869473218917847,2013,4.0,30.0,0.0
8.879473686218262,1761,4.0,30.0,0.0
8.889472723007202,2422,4.0,30.0,0.0
8.90517520904541,1603,4.0,30.0,0.0
8.91118860244751,2231,4.0,30.0,0.0
8.922807455062866,1522,4.0,30.0,0.0
8.935102701187134,2141,4.0,30.0,0.0
8.943830013275146,1495,4.0,30.0,0.0
8.954334735870361,1890,4.0,30.0,0.0
8.965373039245605,1412,4.0,30.0,0.0
8.975372552871704,1712,4.0,30.0,0.0
8.976951599121094,1392,4.0,30.0,0.0
8.987925052642822,1691,4.0,30.0,0.0
8.997931003570557,1255,4.0,30.0,0.0
9.010269165039062,1535,4.0,30.0,0.0
9.022958278656006,1217,4.0,30.0,0.0
9.032975196838379,1562,4.0,30.0,0.0
9.042972087860107,1219,4.0,30.0,0.0
9.052973747253418,1582,4.0,30.0,0.0
9.062972784042358,1304,4.0,30.0,0.0
9.072972297668457,1616,4.0,30.0,0.0
9.082971572875977,1377,4.0,30.0,0.0
9.094389915466309,1639,4.0,30.0,0.0
9.104897022247314,1421,4.0,30.0,0.0
9.10589337348938,1419,4.0,30.0,0.0
9.124397993087769,1478,4.0,30.0,0.0
9.12922716140747,1395,4.0,30.0,0.0
9.145049571990967,1457,4.0,30.0,0.0
9.154062509536743,1317,4.0,30.0,0.0
9.160512208938599,1487,4.0,30.0,0.0
9.170530080795288,1497,4.0,30.0,0.0
9.180529832839966,1467,4.0,30.0,0.0
9.19053030014038,1358,4.0,30.0,0.0
9.200536489486694,1270,4.0,30.0,0.0
9.210530519485474,1021,4.0,30.0,0.0
9.220529079437256,919,4.0,30.0,0.0
9.230530738830566,1770,4.0,30.0,0.0
9.243551254272461,922,4.0,30.0,0.0
9.25508737564087,2062,4.0,30.0,0.0
9.26511836051941,2096,4.0,30.0,0.0
9.27534294128418,1962,4.0,30.0,0.0
9.276341199874878,1890,4.0,30.0,0.0
9.28635549545288,1862,4.0,30.0,0.0
9.296355962753296,1743,4.0,30.0,0.0
9.306368827819824,1627,4.0,30.0,0.0
9.316522359848022,1456,4.0,30.0,0.0
9.334922790527344,1399,4.0,30.0,0.0
9.345049381256104,1358,4.0,30.0,0.0
9.35448408126831,1189,4.0,30.0,0.0
9.36068868637085,1213,4.0,30.0,0.0
9.368703126907349,1147,4.0,30.0,0.0
9.378020763397217,1045,4.0,30.0,0.0
9.388031959533691,1104,4.0,30.0,0.0
9.398032665252686,868,4.0,30.0,0.0
9.4080331325531,1018,4.0,30.0,0.0
9.418033599853516,1671,4.0,30.0,0.0
9.429047584533691,983,4.0,30.0,0.0
9.439053773880005,1729,4.0,30.0,0.0
9.449054956436157,984,4.0,30.0,0.0
9.459053993225098,1374,4.0,30.0,0.0
9.469054460525513,1014,4.0,30.0,0.0
9.479054689407349,1399,4.0,30.0,0.0
9.489053964614868,857,4.0,30.0,0.0
9.499055624008179,1176,4.0,30.0,0.0
9.51015853881836,771,4.0,30.0,0.0
9.522677421569824,1104,4.0,30.0,0.0
9.53268575668335,755,4.0,30.0,0.0
9.54516863822937,829,4.0,30.0,0.0
9.55476427078247,656,4.0,30.0,0.0
9.561680316925049,777,4.0,30.0,0.0
9.570661306381226,604,4.0,30.0,0.0
9.58475947380066,1633,4.0,30.0,0.0
9.594721555709839,482,4.0,30.0,0.0
9.605042934417725,889,4.0,30.0,0.0
9.60705828666687,638,4.0,30.0,0.0
9.617065906524658,865,4.0,30.0,0.0
9.628339290618896,658,4.0,30.0,0.0
9.639326810836792,775,4.0,30.0,0.0
9.64932918548584,567,4.0,30.0,0.0
9.659327030181885,817,4.0,30.0,0.0
9.669327020645142,521,4.0,30.0,0.0
9.679327249526978,1808,4.0,30.0,0.0
9.68932843208313,318,4.0,30.0,0.0
9.699334144592285,1756,4.0,30.0,0.0
9.70932650566101,364,4.0,30.0,0.0
9.71932864189148,1622,4.0,30.0,0.0
9.729327201843262,288,4.0,30.0,0.0
9.73932671546936,1954,4.0,30.0,0.0
9.75484037399292,256,4.0,30.0,0.0
9.761343479156494,1803,4.0,30.0,0.0
9.769350528717041,197,4.0,30.0,0.0
9.77753472328186,1914,4.0,30.0,0.0
9.793629884719849,149,4.0,30.0,0.0
9.803644180297852,1942,4.0,30.0,0.0
9.81527829170227,160,4.0,30.0,0.0
9.8252854347229,1907,4.0,30.0,0.0
9.835298538208008,543,4.0,30.0,0.0
9.845579385757446,1929,4.0,30.0,0.0
9.852773904800415,205,4.0,30.0,0.0
9.862809419631958,1886,4.0,30.0,0.0
9.87509274482727,1685,4.0,30.0,0.0
9.885105609893799,1921,4.0,30.0,0.0
9.895107507705688,1959,4.0,30.0,0.0
9.905224800109863,1864,4.0,30.0,0.0
9.907219409942627,199,4.0,30.0,0.0
9.917258024215698,1790,4.0,30.0,0.0
9.927229881286621,165,4.0,30.0,0.0
9.944942235946655,1669,4.0,30.0,0.0
9.95505404472351,154,4.0,30.0,0.0
9.964620351791382,1356,4.0,30.0,0.0
9.966908693313599,144,4.0,30.0,0.0
9.979273557662964,1127,4.0,30.0,0.0
9.994018793106079,2068,4.0,30.0,0.0
10.003402709960938,1627,4.0,30.0,0.0
10.011448860168457,2353,4.0,30.0,0.0
10.021450757980347,1912,4.0,30.0,0.0
10.035115480422974,2147,4.0,30.0,0.0
10.045151710510254,1360,4.0,30.0,0.0
10.055443525314331,1925,4.0,30.0,0.0
10.056439399719238,1153,4.0,30.0,0.0
10.06644868850708,1712,4.0,30.0,0.0
10.076448440551758,1485,4.0,30.0,0.0
10.086448669433594,1187,4.0,30.0,0.0
10.096450328826904,1645,4.0,30.0,0.0
10.110085725784302,976,4.0,30.0,0.0
10.120922088623047,1408,4.0,30.0,0.0
10.130920886993408,768,4.0,30.0,0.0
10.140920639038086,1343,4.0,30.0,0.0
10.1509268283844,562,4.0,30.0,0.0
10.164729356765747,1260,4.0,30.0,0.0
10.174277782440186,341,4.0,30.0,0.0
10.179208755493164,1153,4.0,30.0,0.0
10.193895101547241,338,4.0,30.0,0.0
10.201925277709961,816,4.0,30.0,0.0
10.210327863693237,327,4.0,30.0,0.0
10.220343828201294,702,4.0,30.0,0.0
10.230345010757446,357,4.0,30.0,0.0
10.244316577911377,1950,4.0,30.0,0.0
10.254556655883789,318,4.0,30.0,0.0
10.255554676055908,1906,4.0,30.0,0.0
10.265564203262329,2206,4.0,30.0,0.0
10.275563716888428,1838,4.0,30.0,0.0
10.285564661026001,2270,4.0,30.0,0.0
10.295565605163574,1685,4.0,30.0,0.0
10.305563926696777,1274,4.0,30.0,0.0
10.315564632415771,1658,4.0,30.0,0.0
10.32558798789978,2199,4.0,30.0,0.0
10.335567474365234,1555,4.0,30.0,0.0
10.345564365386963,1875,4.0,30.0,0.0
10.364058017730713,1449,4.0,30.0,0.0
10.3746018409729,1013,4.0,30.0,0.0
10.385168075561523,1343,4.0,30.0,0.0
10.395045042037964,848,4.0,30.0,0.0
10.40520429611206,1356,4.0,30.0,0.0
10.409217834472656,1181,4.0,30.0,0.0
10.418187856674194,1491,4.0,30.0,0.0
10.42787504196167,1053,4.0,30.0,0.0
10.437886714935303,1168,4.0,30.0,0.0
10.447886228561401,951,4.0,30.0,0.0
10.457888126373291,1877,4.0,30.0,0.0
10.470198631286621,917,4.0,30.0,0.0
10.480208158493042,1507,4.0,30.0,0.0
10.490205764770508,955,4.0,30.0,0.0
10.505293130874634,1306,4.0,30.0,0.0
10.515300273895264,1006,4.0,30.0,0.0
10.525307893753052,1155,4.0,30.0,0.0
10.5266432762146,976,4.0,30.0,0.0
10.537947654724121,969,4.0,30.0,0.0
10.547988891601562,1099,4.0,30.0,0.0
10.560967445373535,1106,4.0,30.0,0.0
10.571009635925293,1135,4.0,30.0,0.0
10.58456802368164,1034,4.0,30.0,0.0
10.594972133636475,1210,4.0,30.0,0.0
10.604986906051636,1010,4.0,30.0,0.0
10.614801168441772,1207,4.0,30.0,0.0
10.622806549072266,1037,4.0,30.0,0.0
10.626816987991333,1152,4.0,30.0,0.0
10.636829614639282,1007,4.0,30.0,0.0
10.646830558776855,1446,4.0,30.0,0.0
10.656830787658691,1013,4.0,30.0,0.0
10.666830778121948,1289,4.0,30.0,0.0
10.676830530166626,917,4.0,30.0,0.0
10.686829566955566,1162,4.0,30.0,0.0
10.696830749511719,894,4.0,30.0,0.0
10.706830024719238,1241,4.0,30.0,0.0
10.716830015182495,823,4.0,30.0,0.0
10.7281494140625,1453,4.0,30.0,0.0
10.738186359405518,1917,4.0,30.0,0.0
10.748186349868774,1358,4.0,30.0,0.0
10.759942770004272,1793,4.0,30.0,0.0
10.770042896270752,1130,4.0,30.0,0.0
10.780043125152588,1457,4.0,30.0,0.0
10.792596817016602,934,4.0,30.0,0.0
10.805265426635742,1264,4.0,30.0,0.0
10.811520338058472,656,4.0,30.0,0.0
10.819647789001465,1504,4.0,30.0,0.0
10.835014343261719,1872,4.0,30.0,0.0
10.844955444335938,1514,4.0,30.0,0.0
10.845942974090576,913,4.0,30.0,0.0
10.859993934631348,1312,4.0,30.0,0.0
10.874315023422241,759,4.0,30.0,0.0
10.877506017684937,1061,4.0,30.0,0.0
10.887552976608276,525,4.0,30.0,0.0
10.89881157875061,1683,4.0,30.0,0.0
10.908854484558105,507,4.0,30.0,0.0
10.918853998184204,1653,4.0,30.0,0.0
10.928854703903198,123,4.0,30.0,0.0
10.945296287536621,1499,4.0,30.0,0.0
10.955317258834839,141,4.0,30.0,0.0
10.96530795097351,1264,4.0,30.0,0.0
10.975300788879395,18,4.0,30.0,0.0
10.976714134216309,1600,4.0,30.0,0.0
10.98680305480957,2409,4.0,30.0,0.0
10.999370098114014,1431,4.0,30.0,0.0
11.015085220336914,1915,4.0,30.0,0.0
11.023103952407837,1111,4.0,30.0,0.0
11.028450965881348,1328,4.0,30.0,0.0
11.04360294342041,1037,4.0,30.0,0.0
11.053680896759033,1472,4.0,30.0,0.0
11.065116167068481,970,4.0,30.0,0.0
11.075129508972168,1522,4.0,30.0,0.0
11.085129022598267,1040,4.0,30.0,0.0
11.095129251480103,1757,4.0,30.0,0.0
11.105386018753052,1102,4.0,30.0,0.0
11.115369319915771,1833,4.0,30.0,0.0
11.125116109848022,1178,4.0,30.0,0.0
11.135145664215088,1767,4.0,30.0,0.0
11.145148277282715,741,4.0,30.0,0.0
11.155128955841064,1710,4.0,30.0,0.0
11.165125131607056,1395,4.0,30.0,0.0
11.175128936767578,1299,4.0,30.0,0.0
11.176512241363525,1373,4.0,30.0,0.0
11.189759016036987,1097,4.0,30.0,0.0
11.199775218963623,1889,4.0,30.0,0.0
11.212323665618896,1060,4.0,30.0,0.0
11.224290132522583,2004,4.0,30.0,0.0
11.228209018707275,987,4.0,30.0,0.0
11.244771957397461,1709,4.0,30.0,0.0
11.253802061080933,887,4.0,30.0,0.0
11.260053873062134,1715,4.0,30.0,0.0
11.270065069198608,888,4.0,30.0,0.0
11.280066728591919,1776,4.0,30.0,0.0
11.293260097503662,820,4.0,30.0,0.0
11.303276777267456,1619,4.0,30.0,0.0
11.31327748298645,785,4.0,30.0,0.0
11.32327675819397,1280,4.0,30.0,0.0
11.335112571716309,783,4.0,30.0,0.0
11.345381498336792,1515,4.0,30.0,0.0
11.346380949020386,915,4.0,30.0,0.0
11.359856843948364,1442,4.0,30.0,0.0
11.370784759521484,761,4.0,30.0,0.0
11.3850736618042,1360,4.0,30.0,0.0
11.389354705810547,843,4.0,30.0,0.0
11.400725364685059,4095,4.0,30.0,0.0
11.410741329193115,848,4.0,30.0,0.0
11.424286842346191,1152,4.0,30.0,0.0
11.434816837310791,765,4.0,30.0,0.0
11.444628477096558,1104,4.0,30.0,0.0
11.454731225967407,574,4.0,30.0,0.0
11.460305452346802,1090,4.0,30.0,0.0
11.471245765686035,606,4.0,30.0,0.0
11.47655987739563,999,4.0,30.0,0.0
11.488047122955322,652,4.0,30.0,0.0
11.498064994812012,831,4.0,30.0,0.0
11.508068084716797,459,4.0,30.0,0.0
11.525024890899658,658,4.0,30.0,0.0
11.525825262069702,337,4.0,30.0,0.0
11.536998510360718,678,4.0,30.0,0.0
11.547008752822876,434,4.0,30.0,0.0
11.557008504867554,837,4.0,30.0,0.0
11.567008256912231,624,4.0,30.0,0.0
11.577204465866089,695,4.0,30.0,0.0
11.588039636611938,733,4.0,30.0,0.0
11.598038911819458,4095,4.0,30.0,0.0
11.608038187026978,848,4.0,30.0,0.0
11.619527101516724,4095,4.0,30.0,0.0
11.629618883132935,913,4.0,30.0,0.0
11.644306659698486,4095,4.0,30.0,0.0
11.655284643173218,944,4.0,30.0,0.0
11.662158250808716,4095,4.0,30.0,0.0
11.67017126083374,816,4.0,30.0,0.0
11.684660196304321,4095,4.0,30.0,0.0
11.694252490997314,650,4.0,30.0,0.0
11.704660892486572,4095,4.0,30.0,0.0
11.70565915107727,519,4.0,30.0,0.0
11.715671062469482,4095,4.0,30.0,0.0
11.725669384002686,417,4.0,30.0,0.0
11.735670804977417,4095,4.0,30.0,0.0
11.745671033859253,333,4.0,30.0,0.0
11.755669355392456,3376,4.0,30.0,0.0
11.765671014785767,210,4.0,30.0,0.0
11.775669574737549,3231,4.0,30.0,0.0
11.785669565200806,222,4.0,30.0,0.0
11.795669794082642,4095,4.0,30.0,0.0
11.80566930770874,208,4.0,30.0,0.0
11.815670728683472,4095,4.0,30.0,0.0
11.825669527053833,189,4.0,30.0,0.0
11.835668563842773,4095,4.0,30.0,0.0
11.854975700378418,165,4.0,30.0,0.0
11.861764192581177,3220,4.0,30.0,0.0
11.86977767944336,81,4.0,30.0,0.0
11.884655714035034,3995,4.0,30.0,0.0
11.894816637039185,250,4.0,30.0,0.0
11.900747537612915,4095,4.0,30.0,0.0
11.915096998214722,195,4.0,30.0,0.0
11.925109148025513,4095,4.0,30.0,0.0
11.935109376907349,0,4.0,30.0,0.0
11.94511079788208,2639,4.0,30.0,0.0
11.955109357833862,48,4.0,30.0,0.0
11.965121984481812,2574,4.0,30.0,0.0
11.968597173690796,255,4.0,30.0,0.0
11.985316276550293,3567,4.0,30.0,0.0
11.987119197845459,144,4.0,30.0,0.0
11.997132301330566,3345,4.0,30.0,0.0
12.007160663604736,16,4.0,30.0,0.0
12.01713252067566,4095,4.0,30.0,0.0
12.02817702293396,300,4.0,30.0,0.0
12.038183450698853,4095,4.0,30.0,0.0
12.048183917999268,272,4.0,30.0,0.0
12.058183670043945,4095,4.0,30.0,0.0
12.070844411849976,223,4.0,30.0,0.0
12.077758550643921,4095,4.0,30.0,0.0
12.092289209365845,112,4.0,30.0,0.0
12.104943990707397,4095,4.0,30.0,0.0
12.109097480773926,35,4.0,30.0,0.0
12.12511420249939,4095,4.0,30.0,0.0
12.131767272949219,0,4.0,30.0,0.0
12.139825582504272,4095,4.0,30.0,0.0
12.14982795715332,17,4.0,30.0,0.0
12.160050630569458,4095,4.0,30.0,0.0
12.17099666595459,0,4.0,30.0,0.0
12.181137084960938,4095,4.0,30.0,0.0
12.19211745262146,0,4.0,30.0,0.0
12.202118158340454,2702,4.0,30.0,0.0
12.215110778808594,0,4.0,30.0,0.0
12.225122928619385,4095,4.0,30.0,0.0
12.23529052734375,0,4.0,30.0,0.0
12.23628544807434,4095,4.0,30.0,0.0
12.246296644210815,0,4.0,30.0,0.0
12.256296157836914,4095,4.0,30.0,0.0
12.266296148300171,0,4.0,30.0,0.0
12.278906345367432,4095,4.0,30.0,0.0
12.294407844543457,0,4.0,30.0,0.0
12.303450107574463,4095,4.0,30.0,0.0
12.312767028808594,0,4.0,30.0,0.0
12.320775985717773,4095,4.0,30.0,0.0
12.327625513076782,26,4.0,30.0,0.0
12.338959217071533,4095,4.0,30.0,0.0
12.348992347717285,112,4.0,30.0,0.0
12.358973026275635,4095,4.0,30.0,0.0
12.368974924087524,177,4.0,30.0,0.0
12.378973960876465,4095,4.0,30.0,0.0
12.388981819152832,271,4.0,30.0,0.0
12.398974180221558,0,4.0,30.0,0.0
12.414947509765625,10,4.0,30.0,0.0
12.416455268859863,368,4.0,30.0,0.0
12.426471710205078,0,4.0,30.0,0.0
12.436472177505493,304,4.0,30.0,0.0
12.446483135223389,0,4.0,30.0,0.0
12.456472158432007,243,4.0,30.0,0.0
12.46852445602417,0,4.0,30.0,0.0
12.478548526763916,238,4.0,30.0,0.0
12.49220323562622,0,4.0,30.0,0.0
12.505104303359985,185,4.0,30.0,0.0
12.512041568756104,0,4.0,30.0,0.0
12.520052671432495,140,4.0,30.0,0.0
12.535091638565063,0,4.0,30.0,0.0
12.545327425003052,96,4.0,30.0,0.0
12.550694704055786,0,4.0,30.0,0.0
12.560589790344238,138,4.0,30.0,0.0
12.57219910621643,0,4.0,30.0,0.0
12.58333945274353,165,4.0,30.0,0.0
12.594469547271729,0,4.0,30.0,0.0
12.598150253295898,192,4.0,30.0,0.0
12.61065149307251,0,4.0,30.0,0.0
12.6206693649292,214,4.0,30.0,0.0
12.631927490234375,0,4.0,30.0,0.0
12.64194631576538,240,4.0,30.0,0.0
12.655158042907715,0,4.0,30.0,0.0
12.665208101272583,214,4.0,30.0,0.0
12.675192832946777,0,4.0,30.0,0.0
12.685185432434082,238,4.0,30.0,0.0
12.695168733596802,0,4.0,30.0,0.0
12.705289125442505,159,4.0,30.0,0.0
12.715176820755005,0,4.0,30.0,0.0
12.724173784255981,95,4.0,30.0,0.0
12.734597444534302,2057,4.0,30.0,0.0
12.7450852394104,94,4.0,30.0,0.0
12.753094911575317,2645,4.0,30.0,0.0
12.760085582733154,67,4.0,30.0,0.0
12.768099784851074,1879,4.0,30.0,0.0
12.77714490890503,46,4.0,30.0,0.0
12.788777112960815,0,4.0,30.0,0.0
12.798815250396729,4095,4.0,30.0,0.0
12.808793306350708,0,4.0,30.0,0.0
12.81879448890686,4095,4.0,30.0,0.0
12.8287935256958,2034,4.0,30.0,0.0
12.838793277740479,4095,4.0,30.0,0.0
12.848794221878052,0,4.0,30.0,0.0
12.859196901321411,4095,4.0,30.0,0.0
12.870094299316406,0,4.0,30.0,0.0
12.880095720291138,4095,4.0,30.0,0.0
12.89009428024292,0,4.0,30.0,0.0
12.900094270706177,4095,4.0,30.0,0.0
12.91302227973938,2518,4.0,30.0,0.0
12.925290822982788,4095,4.0,30.0,0.0
12.931346893310547,2544,4.0,30.0,0.0
12.945086479187012,4095,4.0,30.0,0.0
12.953096866607666,2480,4.0,30.0,0.0
12.960060358047485,4095,4.0,30.0,0.0
12.975295066833496,2387,4.0,30.0,0.0
12.976292371749878,4095,4.0,30.0,0.0
12.986392498016357,2274,4.0,30.0,0.0
12.996389389038086,4095,4.0,30.0,0.0
13.010504245758057,1848,4.0,30.0,0.0
13.020510911941528,4095,4.0,30.0,0.0
13.027227640151978,1952,4.0,30.0,0.0
13.037235498428345,2978,4.0,30.0,0.0
13.04723858833313,1843,4.0,30.0,0.0
13.060529947280884,699,4.0,30.0,0.0
13.070536375045776,1799,4.0,30.0,0.0
13.080541610717773,2171,4.0,30.0,0.0
13.092848300933838,1760,4.0,30.0,0.0
13.103749752044678,4095,4.0,30.0,0.0
13.113744735717773,1900,4.0,30.0,0.0
13.124204635620117,0,4.0,30.0,0.0
13.128177165985107,1708,4.0,30.0,0.0
13.144471168518066,48,4.0,30.0,0.0
13.15248155593872,1986,4.0,30.0,0.0
13.165111541748047,7,4.0,30.0,0.0
13.175310373306274,2379,4.0,30.0,0.0
13.179231643676758,21,4.0,30.0,0.0
13.189246654510498,2573,4.0,30.0,0.0
13.199248552322388,0,4.0,30.0,0.0
13.209247350692749,2891,4.0,30.0,0.0
13.219247102737427,2137,4.0,30.0,0.0
13.227155923843384,2466,4.0,30.0,0.0
13.23716425895691,2311,4.0,30.0,0.0
13.247164726257324,1978,4.0,30.0,0.0
13.257164478302002,2065,4.0,30.0,0.0
13.267164945602417,2419,4.0,30.0,0.0
13.278337478637695,1820,4.0,30.0,0.0
13.288345575332642,185,4.0,30.0,0.0
13.29834532737732,1862,4.0,30.0,0.0
13.308345079421997,893,4.0,30.0,0.0
13.318346738815308,2055,4.0,30.0,0.0
13.327130317687988,2887,4.0,30.0,0.0
13.344383001327515,2313,4.0,30.0,0.0
13.354811429977417,2810,4.0,30.0,0.0
13.361214637756348,2416,4.0,30.0,0.0
13.37528109550476,2768,4.0,30.0,0.0
13.385159969329834,2511,4.0,30.0,0.0
13.394199848175049,2797,4.0,30.0,0.0
13.404201030731201,2496,4.0,30.0,0.0
13.414201259613037,2710,4.0,30.0,0.0
13.419910907745361,1682,4.0,30.0,0.0
13.434471368789673,2821,4.0,30.0,0.0
13.437198400497437,756,4.0,30.0,0.0
13.447272539138794,2903,4.0,30.0,0.0
13.45932936668396,2426,4.0,30.0,0.0
13.469643354415894,2547,4.0,30.0,0.0
13.480560064315796,2543,4.0,30.0,0.0
13.495291948318481,1933,4.0,30.0,0.0
13.505300045013428,2470,4.0,30.0,0.0
13.515730142593384,1744,4.0,30.0,0.0
13.516726732254028,2551,4.0,30.0,0.0
13.526934385299683,1729,4.0,30.0,0.0
13.537822008132935,2077,4.0,30.0,0.0
13.547821998596191,1461,4.0,30.0,0.0
13.561854362487793,1559,4.0,30.0,0.0
13.575429677963257,1333,4.0,30.0,0.0
13.578137397766113,1079,4.0,30.0,0.0
13.592938661575317,1799,4.0,30.0,0.0
13.602107286453247,2469,4.0,30.0,0.0
13.610583782196045,1762,4.0,30.0,0.0
13.62181830406189,2235,4.0,30.0,0.0
13.631860733032227,1803,4.0,30.0,0.0
13.643989324569702,0,4.0,30.0,0.0
13.655117988586426,1173,4.0,30.0,0.0
13.665129899978638,0,4.0,30.0,0.0
13.675129413604736,919,4.0,30.0,0.0
13.685140609741211,0,4.0,30.0,0.0
13.685554504394531,667,4.0,30.0,0.0
13.696422100067139,0,4.0,30.0,0.0
13.706422328948975,234,4.0,30.0,0.0
13.716423511505127,0,4.0,30.0,0.0
13.726189374923706,37,4.0,30.0,0.0
13.736206769943237,0,4.0,30.0,0.0
13.746207237243652,0,4.0,30.0,0.0
13.764534711837769,0,4.0,30.0,0.0
13.775355100631714,2015,4.0,30.0,0.0
13.784464359283447,0,4.0,30.0,0.0
13.792919158935547,1381,4.0,30.0,0.0
13.80198860168457,4095,4.0,30.0,0.0
13.809543371200562,882,4.0,30.0,0.0
13.821706056594849,4095,4.0,30.0,0.0
13.834814071655273,804,4.0,30.0,0.0
13.844391107559204,4095,4.0,30.0,0.0
13.851104736328125,697,4.0,30.0,0.0
13.8586585521698,4095,4.0,30.0,0.0
13.875042200088501,939,4.0,30.0,0.0
13.877164602279663,4095,4.0,30.0,0.0
13.888356447219849,782,4.0,30.0,0.0
13.89708399772644,4095,4.0,30.0,0.0
13.91137957572937,669,4.0,30.0,0.0
13.92003583908081,4095,4.0,30.0,0.0
13.934484243392944,1556,4.0,30.0,0.0
13.944108963012695,4095,4.0,30.0,0.0
13.950755596160889,1199,4.0,30.0,0.0
13.965284824371338,4095,4.0,30.0,0.0
13.974953889846802,861,4.0,30.0,0.0
13.984408140182495,4095,4.0,30.0,0.0
13.993647575378418,462,4.0,30.0,0.0
14.004506349563599,4095,4.0,30.0,0.0
14.01510238647461,382,4.0,30.0,0.0
14.025317907333374,4095,4.0,30.0,0.0
14.035230875015259,2128,4.0,30.0,0.0
14.04511284828186,4095,4.0,30.0,0.0
14.051547288894653,156,4.0,30.0,0.0
14.064921379089355,4095,4.0,30.0,0.0
14.075297117233276,0,4.0,30.0,0.0
14.082345008850098,4095,4.0,30.0,0.0
14.092814207077026,62,4.0,30.0,0.0
14.105278015136719,4095,4.0,30.0,0.0
14.113068342208862,45,4.0,30.0,0.0
14.125375270843506,4095,4.0,30.0,0.0
14.134960651397705,0,4.0,30.0,0.0
14.145261526107788,4095,4.0,30.0,0.0
14.151299238204956,0,4.0,30.0,0.0
14.163145303726196,4095,4.0,30.0,0.0
14.175492525100708,0,4.0,30.0,0.0
14.182323932647705,4095,4.0,30.0,0.0
14.19502854347229,0,4.0,30.0,0.0
14.20453667640686,4095,4.0,30.0,0.0
14.214705228805542,0,4.0,30.0,0.0
14.22528600692749,4095,4.0,30.0,0.0
14.2346670627594,0,4.0,30.0,0.0
14.244853496551514,4095,4.0,30.0,0.0
14.252699613571167,0,4.0,30.0,0.0
14.26434588432312,4095,4.0,30.0,0.0
14.275197267532349,0,4.0,30.0,0.0
14.28368592262268,4095,4.0,30.0,0.0
14.295092582702637,0,4.0,30.0,0.0
14.305055141448975,4095,4.0,30.0,0.0
14.315019369125366,0,4.0,30.0,0.0
14.325163841247559,4095,4.0,30.0,0.0
14.334562540054321,0,4.0,30.0,0.0
14.343568325042725,4095,4.0,30.0,0.0
14.355072736740112,0,4.0,30.0,0.0
14.36535382270813,4095,4.0,30.0,0.0
14.375218152999878,35,4.0,30.0,0.0
14.383400201797485,4095,4.0,30.0,0.0
14.394919872283936,95,4.0,30.0,0.0
14.404515743255615,4095,4.0,30.0,0.0
14.414498567581177,32,4.0,30.0,0.0
14.425387859344482,4095,4.0,30.0,0.0
14.43464708328247,130,4.0,30.0,0.0
14.445258855819702,4095,4.0,30.0,0.0
14.449639797210693,751,4.0,30.0,0.0
14.465023756027222,4095,4.0,30.0,0.0
14.475157260894775,925,4.0,30.0,0.0
14.484688758850098,4095,4.0,30.0,0.0
14.494616031646729,768,4.0,30.0,0.0
14.502960681915283,4095,4.0,30.0,0.0
14.510989665985107,618,4.0,30.0,0.0
14.525258779525757,4095,4.0,30.0,0.0
14.533470153808594,453,4.0,30.0,0.0
14.544883012771606,4095,4.0,30.0,0.0
14.554632902145386,297,4.0,30.0,0.0
14.557554721832275,4095,4.0,30.0,0.0
14.57174301147461,272,4.0,30.0,0.0
14.58503007888794,4095,4.0,30.0,0.0
14.595055341720581,448,4.0,30.0,0.0
14.605337858200073,4095,4.0,30.0,0.0
14.609198570251465,0,4.0,30.0,0.0
14.623838663101196,4095,4.0,30.0,0.0
14.634487628936768,0,4.0,30.0,0.0
14.645155191421509,4095,4.0,30.0,0.0
14.650431156158447,0,4.0,30.0,0.0
14.66529631614685,4095,4.0,30.0,0.0
14.675109148025513,0,4.0,30.0,0.0
14.680021524429321,4095,4.0,30.0,0.0
14.695253372192383,0,4.0,30.0,0.0
14.704565048217773,4095,4.0,30.0,0.0
14.715303421020508,0,4.0,30.0,0.0
14.725535154342651,4095,4.0,30.0,0.0
14.734758615493774,0,4.0,30.0,0.0
14.742548942565918,4095,4.0,30.0,0.0
14.750019788742065,0,4.0,30.0,0.0
14.765439748764038,4095,4.0,30.0,0.0
14.775391817092896,0,4.0,30.0,0.0
14.77986454963684,4095,4.0,30.0,0.0
14.795327425003052,2585,4.0,30.0,0.0
14.803664207458496,4095,4.0,30.0,0.0
14.811544418334961,0,4.0,30.0,0.0
14.824941635131836,4095,4.0,30.0,0.0
14.833555698394775,0,4.0,30.0,0.0
14.84396767616272,4095,4.0,30.0,0.0
14.854915142059326,0,4.0,30.0,0.0
14.865277528762817,4095,4.0,30.0,0.0
14.875113248825073,0,4.0,30.0,0.0
14.880411863327026,4095,4.0,30.0,0.0
14.89494013786316,1079,4.0,30.0,0.0
14.903443098068237,4095,4.0,30.0,0.0
14.91193413734436,2026,4.0,30.0,0.0
14.925296068191528,4095,4.0,30.0,0.0
14.933147430419922,2119,4.0,30.0,0.0
14.944279670715332,4095,4.0,30.0,0.0
14.95535683631897,4095,4.0,30.0,0.0
14.965052127838135,4095,4.0,30.0,0.0
14.975112915039062,800,4.0,30.0,0.0
14.985236167907715,4095,4.0,30.0,0.0
14.994270324707031,1088,4.0,30.0,0.0
15.00542163848877,4095,4.0,30.0,0.0
15.008413791656494,2507,4.0,30.0,0.0
15.019392251968384,4095,4.0,30.0,0.0
15.032896995544434,461,4.0,30.0,0.0
15.044375658035278,4095,4.0,30.0,0.0
15.054823398590088,1802,4.0,30.0,0.0
15.064507246017456,4095,4.0,30.0,0.0
15.075238704681396,779,4.0,30.0,0.0
15.079944372177124,1246,4.0,30.0,0.0
15.09396767616272,2250,4.0,30.0,0.0
15.104005336761475,4095,4.0,30.0,0.0
15.108686447143555,2878,4.0,30.0,0.0
15.12506651878357,4095,4.0,30.0,0.0
15.126070976257324,2477,4.0,30.0,0.0
15.140387296676636,4095,4.0,30.0,0.0
15.14802074432373,2067,4.0,30.0,0.0
15.163448572158813,4095,4.0,30.0,0.0
15.171162366867065,1664,4.0,30.0,0.0
15.185498237609863,4095,4.0,30.0,0.0
15.19409465789795,1518,4.0,30.0,0.0
15.204097032546997,4095,4.0,30.0,0.0
15.215282678604126,1707,4.0,30.0,0.0
15.224904298782349,4095,4.0,30.0,0.0
15.23240327835083,38,4.0,30.0,0.0
15.240119457244873,4095,4.0,30.0,0.0
15.254994630813599,1457,4.0,30.0,0.0
15.263439416885376,4095,4.0,30.0,0.0
15.27537202835083,0,4.0,30.0,0.0
15.28558874130249,4095,4.0,30.0,0.0
15.293880939483643,743,4.0,30.0,0.0
15.301900625228882,4095,4.0,30.0,0.0
15.31191110610962,337,4.0,30.0,0.0
15.325218915939331,4095,4.0,30.0,0.0
15.33397102355957,98,4.0,30.0,0.0
15.342674970626831,4095,4.0,30.0,0.0
15.35521912574768,1234,4.0,30.0,0.0
15.365470170974731,4095,4.0,30.0,0.0
15.37541913986206,2554,4.0,30.0,0.0
15.385129928588867,4095,4.0,30.0,0.0
15.395336151123047,176,4.0,30.0,0.0
15.402389287948608,4095,4.0,30.0,0.0
15.411519527435303,1155,4.0,30.0,0.0
15.425354480743408,3334,4.0,30.0,0.0
15.432975769042969,1774,4.0,30.0,0.0
15.443280696868896,571,4.0,30.0,0.0
15.455019235610962,862,4.0,30.0,0.0
15.465086221694946,4095,4.0,30.0,0.0
15.47500467300415,1371,4.0,30.0,0.0
15.484933614730835,4095,4.0,30.0,0.0
15.495310544967651,1489,4.0,30.0,0.0
15.504760265350342,4095,4.0,30.0,0.0
15.51549243927002,1394,4.0,30.0,0.0
15.524961233139038,4095,4.0,30.0,0.0
15.53452467918396,2003,4.0,30.0,0.0
15.5453941822052,4095,4.0,30.0,0.0
15.555061101913452,496,4.0,30.0,0.0
15.565149784088135,4095,4.0,30.0,0.0
15.575135231018066,1431,4.0,30.0,0.0
15.5844566822052,4095,4.0,30.0,0.0
15.595183372497559,1456,4.0,30.0,0.0
15.603158473968506,4095,4.0,30.0,0.0
15.615474462509155,1284,4.0,30.0,0.0
15.625120639801025,4095,4.0,30.0,0.0
15.632606029510498,1767,4.0,30.0,0.0
15.644343376159668,4095,4.0,30.0,0.0
15.655521869659424,160,4.0,30.0,0.0
15.66532039642334,4095,4.0,30.0,0.0
15.67643928527832,1351,4.0,30.0,0.0
15.685353994369507,4095,4.0,30.0,0.0
15.694454908370972,1557,4.0,30.0,0.0
15.702272415161133,4095,4.0,30.0,0.0
15.71526288986206,1391,4.0,30.0,0.0
15.725193500518799,4095,4.0,30.0,0.0
15.732284784317017,1398,4.0,30.0,0.0
15.745695352554321,4095,4.0,30.0,0.0
15.755424737930298,1399,4.0,30.0,0.0
15.763451099395752,4095,4.0,30.0,0.0
15.774841785430908,1432,4.0,30.0,0.0
15.78526782989502,4095,4.0,30.0,0.0
15.794376373291016,1434,4.0,30.0,0.0
15.803965091705322,4095,4.0,30.0,0.0
15.81467080116272,1264,4.0,30.0,0.0
15.824899911880493,4095,4.0,30.0,0.0
15.834663391113281,1283,4.0,30.0,0.0
15.844504594802856,4095,4.0,30.0,0.0
15.85460615158081,2075,4.0,30.0,0.0
15.862672328948975,4095,4.0,30.0,0.0
15.875101566314697,929,4.0,30.0,0.0
15.885159254074097,4095,4.0,30.0,0.0
15.894388914108276,4095,4.0,30.0,0.0
15.900978088378906,4095,4.0,30.0,0.0
15.914530992507935,4095,4.0,30.0,0.0
15.924983739852905,4095,4.0,30.0,0.0
15.930824518203735,4095,4.0,30.0,0.0
15.945486307144165,4095,4.0,30.0,0.0
15.95287036895752,4095,4.0,30.0,0.0
15.963598489761353,4095,4.0,30.0,0.0
15.974865674972534,4095,4.0,30.0,0.0
15.984618186950684,4095,4.0,30.0,0.0
15.991383790969849,4095,4.0,30.0,0.0
16.000007152557373,4095,4.0,30.0,0.0
16.015244245529175,4095,4.0,30.0,0.0
16.025256395339966,4095,4.0,30.0,0.0
16.03279423713684,4095,4.0,30.0,0.0
16.045477390289307,4095,4.0,30.0,0.0
16.054676055908203,4095,4.0,30.0,0.0
16.061633586883545,4095,4.0,30.0,0.0
16.07501745223999,4095,4.0,30.0,0.0
16.085411548614502,4095,4.0,30.0,0.0
16.09486699104309,4095,4.0,30.0,0.0
16.099684953689575,4095,4.0,30.0,0.0
16.114373445510864,4095,4.0,30.0,0.0
16.12491512298584,4095,4.0,30.0,0.0
16.13249635696411,4095,4.0,30.0,0.0
16.144788026809692,4095,4.0,30.0,0.0
16.154401540756226,4095,4.0,30.0,0.0
16.163269996643066,4095,4.0,30.0,0.0
16.175002098083496,4095,4.0,30.0,0.0
16.185486793518066,4095,4.0,30.0,0.0
16.192378282546997,4095,4.0,30.0,0.0
16.199779748916626,4095,4.0,30.0,0.0
16.21515417098999,4095,4.0,30.0,0.0
16.22493004798889,4095,4.0,30.0,0.0
16.23124361038208,4095,4.0,30.0,0.0
16.244505882263184,4095,4.0,30.0,0.0
16.253089666366577,4095,4.0,30.0,0.0
16.262373447418213,4095,4.0,30.0,0.0
16.275002479553223,4095,4.0,30.0,0.0
16.28488302230835,4095,4.0,30.0,0.0
16.294909954071045,4095,4.0,30.0,0.0
16.305232286453247,4095,4.0,30.0,0.0
16.314713716506958,4095,4.0,30.0,0.0
16.324910163879395,4095,4.0,30.0,0.0
16.329853296279907,4095,4.0,30.0,0.0
16.345173358917236,4095,4.0,30.0,0.0
16.354397296905518,4095,4.0,30.0,0.0
16.362438201904297,4095,4.0,30.0,0.0
16.374940156936646,4095,4.0,30.0,0.0
16.38444185256958,4095,4.0,30.0,0.0
16.395206212997437,4095,4.0,30.0,0.0
16.39995574951172,4095,4.0,30.0,0.0
16.414623975753784,4095,4.0,30.0,0.0
16.425240516662598,4095,4.0,30.0,0.0
16.43368911743164,4095,4.0,30.0,0.0
16.445216178894043,4095,4.0,30.0,0.0
16.45272707939148,4095,4.0,30.0,0.0
16.461785078048706,4095,4.0,30.0,0.0
16.474814414978027,4095,4.0,30.0,0.0
16.484699249267578,4095,4.0,30.0,0.0
16.49145746231079,4095,4.0,30.0,0.0
16.50527048110962,4095,4.0,30.0,0.0
16.516127347946167,4095,4.0,30.0,0.0
16.525142192840576,4095,4.0,30.0,0.0
16.534676551818848,4095,4.0,30.0,0.0
16.544576168060303,4095,4.0,30.0,0.0
16.554822206497192,4095,4.0,30.0,0.0
16.565438747406006,4095,4.0,30.0,0.0
16.57293963432312,4095,4.0,30.0,0.0
16.584826946258545,4095,4.0,30.0,0.0
16.59490466117859,4095,4.0,30.0,0.0
16.6052143573761,4095,4.0,30.0,0.0
16.61488366127014,4095,4.0,30.0,0.0
16.624882221221924,4095,4.0,30.0,0.0
16.63442826271057,4095,4.0,30.0,0.0
16.644919633865356,4095,4.0,30.0,0.0
16.65450954437256,4095,4.0,30.0,0.0
16.66485071182251,4095,4.0,30.0,0.0
16.674814462661743,4095,4.0,30.0,0.0
16.684732913970947,4095,4.0,30.0,0.0
16.695348501205444,4095,4.0,30.0,0.0
16.70486807823181,4095,4.0,30.0,0.0
16.715035915374756,4095,4.0,30.0,0.0
16.7253315448761,4095,4.0,30.0,0.0
16.73264217376709,4095,4.0,30.0,0.0
16.744975090026855,4095,4.0,30.0,0.0
16.752283811569214,4095,4.0,30.0,0.0
16.76361060142517,4095,4.0,30.0,0.0
16.776958465576172,4095,4.0,30.0,0.0
16.78477692604065,4095,4.0,30.0,0.0
16.794893980026245,4095,4.0,30.0,0.0
16.804747104644775,4095,4.0,30.0,0.0
16.815191507339478,4095,4.0,30.0,0.0
16.824949741363525,4095,4.0,30.0,0.0
16.835047245025635,4095,4.0,30.0,0.0
16.84427833557129,4095,4.0,30.0,0.0
16.853381633758545,4095,4.0,30.0,0.0
16.85879683494568,4095,4.0,30.0,0.0
16.86654233932495,4095,4.0,30.0,0.0
16.881924629211426,4095,4.0,30.0,0.0
16.891939163208008,4095,4.0,30.0,0.0
16.897147178649902,4095,4.0,30.0,0.0
16.912487268447876,4095,4.0,30.0,0.0
16.92249822616577,4095,4.0,30.0,0.0
16.934532403945923,4095,4.0,30.0,0.0
16.94496726989746,4095,4.0,30.0,0.0
16.954082489013672,4095,4.0,30.0,0.0
16.964763641357422,4095,4.0,30.0,0.0
16.974743604660034,4095,4.0,30.0,0.0
16.983693838119507,4095,4.0,30.0,0.0
16.9913067817688,4095,4.0,30.0,0.0
17.004701852798462,4095,4.0,30.0,0.0
17.012404203414917,4095,4.0,30.0,0.0
17.020082473754883,4095,4.0,30.0,0.0
17.0278160572052,4095,4.0,30.0,0.0
17.0448055267334,4095,4.0,30.0,0.0
17.051283359527588,4095,4.0,30.0,0.0
17.06537437438965,4095,4.0,30.0,0.0
17.07386326789856,4095,4.0,30.0,0.0
17.08145546913147,4095,4.0,30.0,0.0
17.088212728500366,4095,4.0,30.0,0.0
17.104520797729492,4095,4.0,30.0,0.0
17.11216139793396,4095,4.0,30.0,0.0
17.11982226371765,4095,4.0,30.0,0.0
17.135127305984497,4095,4.0,30.0,0.0
17.136022806167603,4095,4.0,30.0,0.0
17.155264377593994,4095,4.0,30.0,0.0
17.164446115493774,4095,4.0,30.0,0.0
17.17466378211975,4095,4.0,30.0,0.0
17.1811420917511,4095,4.0,30.0,0.0
17.195295810699463,4095,4.0,30.0,0.0
17.20485806465149,4095,4.0,30.0,0.0
17.212040185928345,4095,4.0,30.0,0.0
17.22455096244812,4095,4.0,30.0,0.0
17.234570264816284,4095,4.0,30.0,0.0
17.235589027404785,4095,4.0,30.0,0.0
17.251734495162964,4095,4.0,30.0,0.0
17.26552677154541,4095,4.0,30.0,0.0
17.274826526641846,4095,4.0,30.0,0.0
17.28149724006653,4095,4.0,30.0,0.0
17.290600061416626,4095,4.0,30.0,0.0
17.304542779922485,4095,4.0,30.0,0.0
17.31123113632202,4095,4.0,30.0,0.0
17.32029390335083,4095,4.0,30.0,0.0
17.335241079330444,4095,4.0,30.0,0.0
17.34288716316223,4095,4.0,30.0,0.0
17.352930068969727,4095,4.0,30.0,0.0
17.366153955459595,4095,4.0,30.0,0.0
17.374635934829712,4095,4.0,30.0,0.0
17.38452649116516,4095,4.0,30.0,0.0
17.393946886062622,4095,4.0,30.0,0.0
17.404814958572388,4095,4.0,30.0,0.0
17.4112229347229,4095,4.0,30.0,0.0
17.42482852935791,4095,4.0,30.0,0.0
17.435171842575073,4095,4.0,30.0,0.0
17.445014238357544,4095,4.0,30.0,0.0
17.450385570526123,4095,4.0,30.0,0.0
17.464825868606567,4095,4.0,30.0,0.0
17.475162029266357,4095,4.0,30.0,0.0
17.48462748527527,4095,4.0,30.0,0.0
17.495285272598267,4095,4.0,30.0,0.0
17.505185842514038,4095,4.0,30.0,0.0
17.512407064437866,4095,4.0,30.0,0.0
17.52509331703186,4095,4.0,30.0,0.0
17.534725666046143,4095,4.0,30.0,0.0
17.543456554412842,4095,4.0,30.0,0.0
17.555808544158936,4095,4.0,30.0,0.0
17.564545154571533,4095,4.0,30.0,0.0
17.575226306915283,4095,4.0,30.0,0.0
17.585108757019043,4095,4.0,30.0,0.0
17.595476388931274,4095,4.0,30.0,0.0
17.604674816131592,4095,4.0,30.0,0.0
17.6144278049469,4095,4.0,30.0,0.0
17.625006914138794,4095,4.0,30.0,0.0
17.6352276802063,4095,4.0,30.0,0.0
17.64452052116394,4095,4.0,30.0,0.0
17.65492057800293,4095,4.0,30.0,0.0
17.665374994277954,4095,4.0,30.0,0.0
17.67514157295227,4095,4.0,30.0,0.0
17.68444514274597,4095,4.0,30.0,0.0
17.69494891166687,4095,4.0,30.0,0.0
17.705373764038086,4095,4.0,30.0,0.0
17.7142071723938,4095,4.0,30.0,0.0
17.72460961341858,4095,4.0,30.0,0.0
17.735026359558105,4095,4.0,30.0,0.0
17.744810581207275,4095,4.0,30.0,0.0
17.75185799598694,4095,4.0,30.0,0.0
17.764673948287964,4095,4.0,30.0,0.0
17.774442195892334,4095,4.0,30.0,0.0
17.78487777709961,4095,4.0,30.0,0.0
17.794657468795776,4095,4.0,30.0,0.0
17.804699420928955,4095,4.0,30.0,0.0
17.81505036354065,4095,4.0,30.0,0.0
17.825345754623413,4095,4.0,30.0,0.0
17.835265636444092,4095,4.0,30.0,0.0
17.84237551689148,4095,4.0,30.0,0.0
17.84932780265808,4095,4.0,30.0,0.0
17.86483645439148,4095,4.0,30.0,0.0
17.874337196350098,4095,4.0,30.0,0.0
17.88002634048462,4095,4.0,30.0,0.0
17.894622564315796,4095,4.0,30.0,0.0
17.903334617614746,4095,4.0,30.0,0.0
17.911187171936035,4095,4.0,30.0,0.0
17.925589561462402,4095,4.0,30.0,0.0
17.92658543586731,4095,4.0,30.0,0.0
17.941977500915527,4095,4.0,30.0,0.0
17.950532913208008,4095,4.0,30.0,0.0
17.957204818725586,4095,4.0,30.0,0.0
17.973271131515503,4095,4.0,30.0,0.0
17.98028588294983,4095,4.0,30.0,0.0
17.98854088783264,4095,4.0,30.0,0.0
18.004860877990723,4095,4.0,30.0,0.0
18.01133155822754,4095,4.0,30.0,0.0
18.02525758743286,4095,4.0,30.0,0.0
18.034608840942383,4095,4.0,30.0,0.0
18.045262336730957,4095,4.0,30.0,0.0
18.051249980926514,2678,4.0,30.0,0.0
18.06325674057007,4095,4.0,30.0,0.0
18.073060035705566,1351,4.0,30.0,0.0
18.080318212509155,4095,4.0,30.0,0.0
18.09502148628235,1200,4.0,30.0,0.0
18.104666471481323,4095,4.0,30.0,0.0
18.11149263381958,1104,4.0,30.0,0.0
18.125385999679565,4095,4.0,30.0,0.0
18.13427972793579,683,4.0,30.0,0.0
18.14180040359497,4095,4.0,30.0,0.0
18.15008783340454,858,4.0,30.0,0.0
18.165415287017822,4095,4.0,30.0,0.0
18.174888372421265,1630,4.0,30.0,0.0
18.179524898529053,4095,4.0,30.0,0.0
18.19478487968445,4095,4.0,30.0,0.0
18.203463554382324,4095,4.0,30.0,0.0
18.211169958114624,4095,4.0,30.0,0.0
18.22564721107483,4095,4.0,30.0,0.0
18.235055208206177,3291,4.0,30.0,0.0
18.24447798728943,4095,4.0,30.0,0.0
18.25530171394348,2323,4.0,30.0,0.0
18.265000343322754,4095,4.0,30.0,0.0
18.274788856506348,1654,4.0,30.0,0.0
18.279247045516968,4095,4.0,30.0,0.0
18.29463291168213,781,4.0,30.0,0.0
18.30132293701172,4095,4.0,30.0,0.0
18.30997395515442,182,4.0,30.0,0.0
18.324578762054443,4095,4.0,30.0,0.0
18.332995653152466,74,4.0,30.0,0.0
18.340912103652954,4095,4.0,30.0,0.0
18.355024099349976,0,4.0,30.0,0.0
18.363617658615112,4095,4.0,30.0,0.0
18.371376037597656,0,4.0,30.0,0.0
18.380537033081055,4095,4.0,30.0,0.0
18.394992351531982,23,4.0,30.0,0.0
18.405245542526245,4095,4.0,30.0,0.0
18.41508460044861,78,4.0,30.0,0.0
18.424639463424683,4095,4.0,30.0,0.0
18.435880422592163,509,4.0,30.0,0.0
18.44461989402771,4095,4.0,30.0,0.0
18.455387592315674,4095,4.0,30.0,0.0
18.460291624069214,4095,4.0,30.0,0.0
18.474546909332275,4095,4.0,30.0,0.0
18.479118585586548,4095,4.0,30.0,0.0
18.49362540245056,4095,4.0,30.0,0.0
18.50511622428894,4095,4.0,30.0,0.0
18.508919715881348,4095,4.0,30.0,0.0
18.518938779830933,4095,4.0,30.0,0.0
18.532079219818115,4095,4.0,30.0,0.0
18.54320979118347,3685,4.0,30.0,0.0
18.554938554763794,4095,4.0,30.0,0.0
18.564997911453247,2954,4.0,30.0,0.0
18.57528519630432,4095,4.0,30.0,0.0
18.58478569984436,4095,4.0,30.0,0.0
18.585784435272217,4095,4.0,30.0,0.0
18.60188889503479,4095,4.0,30.0,0.0
18.608842134475708,4095,4.0,30.0,0.0
18.618905305862427,4095,4.0,30.0,0.0
18.63161063194275,4095,4.0,30.0,0.0
18.64461874961853,4095,4.0,30.0,0.0
18.655010223388672,4095,4.0,30.0,0.0
18.659618139266968,4095,4.0,30.0,0.0
18.674310445785522,4095,4.0,30.0,0.0
18.677798748016357,4095,4.0,30.0,0.0
18.69215703010559,4095,4.0,30.0,0.0
18.705314874649048,4095,4.0,30.0,0.0
18.70889163017273,4095,4.0,30.0,0.0
18.718905925750732,4095,4.0,30.0,0.0
18.728904724121094,4095,4.0,30.0,0.0
18.740208387374878,4095,4.0,30.0,0.0
18.75025510787964,4095,4.0,30.0,0.0
18.76238512992859,3120,4.0,30.0,0.0
18.772395849227905,4095,4.0,30.0,0.0
18.784831523895264,2450,4.0,30.0,0.0
18.79450297355652,4095,4.0,30.0,0.0
18.800499439239502,2076,4.0,30.0,0.0
18.811683654785156,4095,4.0,30.0,0.0
18.82363724708557,1887,4.0,30.0,0.0
18.83369493484497,1456,4.0,30.0,0.0
18.845008850097656,0,4.0,30.0,0.0
18.846993684768677,1546,4.0,30.0,0.0
18.8637855052948,0,4.0,30.0,0.0
18.87494969367981,1718,4.0,30.0,0.0
18.879504203796387,0,4.0,30.0,0.0
18.895344257354736,4095,4.0,30.0,0.0
18.901836395263672,637,4.0,30.0,0.0
18.915039777755737,4095,4.0,30.0,0.0
18.92513942718506,1242,4.0,30.0,0.0
18.926682949066162,4095,4.0,30.0,0.0
18.945514678955078,2213,4.0,30.0,0.0
18.946693420410156,4095,4.0,30.0,0.0
18.961962938308716,2458,4.0,30.0,0.0
18.97312021255493,4095,4.0,30.0,0.0
18.976614952087402,3851,4.0,30.0,0.0
18.986621618270874,4095,4.0,30.0,0.0
18.99662137031555,3264,4.0,30.0,0.0
19.01008439064026,4095,4.0,30.0,0.0
19.023012161254883,2810,4.0,30.0,0.0
19.033058404922485,4095,4.0,30.0,0.0
19.04518485069275,2962,4.0,30.0,0.0
19.0461368560791,4095,4.0,30.0,0.0
19.059481382369995,3018,4.0,30.0,0.0
19.074915409088135,4095,4.0,30.0,0.0
19.08462619781494,4095,4.0,30.0,0.0
19.09350562095642,4095,4.0,30.0,0.0
19.102461338043213,4095,4.0,30.0,0.0
19.108594179153442,4095,4.0,30.0,0.0
19.124823570251465,4095,4.0,30.0,0.0
19.128810167312622,4095,4.0,30.0,0.0
19.141777753829956,4095,4.0,30.0,0.0
19.155272006988525,4095,4.0,30.0,0.0
19.15993070602417,4095,4.0,30.0,0.0
19.169939041137695,4095,4.0,30.0,0.0
19.17993927001953,4095,4.0,30.0,0.0
19.189941883087158,4095,4.0,30.0,0.0
19.199941873550415,2659,4.0,30.0,0.0
19.214657068252563,4095,4.0,30.0,0.0
19.22337770462036,4095,4.0,30.0,0.0
19.233388662338257,1029,4.0,30.0,0.0
19.245728254318237,4095,4.0,30.0,0.0
19.255104303359985,65,4.0,30.0,0.0
19.260671138763428,4095,4.0,30.0,0.0
19.272753715515137,0,4.0,30.0,0.0
19.2845778465271,4095,4.0,30.0,0.0
19.295077323913574,0,4.0,30.0,0.0
19.305281400680542,4095,4.0,30.0,0.0
19.30980896949768,0,4.0,30.0,0.0
19.324486017227173,4095,4.0,30.0,0.0
19.33066701889038,0,4.0,30.0,0.0
19.345457792282104,4095,4.0,30.0,0.0
19.35463523864746,0,4.0,30.0,0.0
19.36233901977539,4095,4.0,30.0,0.0
19.370158433914185,0,4.0,30.0,0.0
19.384878396987915,4095,4.0,30.0,0.0
19.394264698028564,0,4.0,30.0,0.0
19.400832891464233,4095,4.0,30.0,0.0
19.415017127990723,0,4.0,30.0,0.0
19.425034761428833,4095,4.0,30.0,0.0
19.431357860565186,0,4.0,30.0,0.0
19.444761753082275,4095,4.0,30.0,0.0
19.45543932914734,0,4.0,30.0,0.0
19.462329864501953,4095,4.0,30.0,0.0
19.4743230342865,0,4.0,30.0,0.0
19.485268592834473,4095,4.0,30.0,0.0
19.494683980941772,0,4.0,30.0,0.0
19.49940514564514,4095,4.0,30.0,0.0
19.515177965164185,0,4.0,30.0,0.0
19.524416208267212,4095,4.0,30.0,0.0
19.530763387680054,0,4.0,30.0,0.0
19.544981241226196,4095,4.0,30.0,0.0
19.55321764945984,0,4.0,30.0,0.0
19.561098098754883,4095,4.0,30.0,0.0
19.575024366378784,0,4.0,30.0,0.0
19.583940982818604,4095,4.0,30.0,0.0
19.59537124633789,0,4.0,30.0,0.0
19.596303462982178,4095,4.0,30.0,0.0
19.61459255218506,0,4.0,30.0,0.0
19.6249942779541,4095,4.0,30.0,0.0
19.625990629196167,0,4.0,30.0,0.0
19.645324230194092,4095,4.0,30.0,0.0
19.653042793273926,0,4.0,30.0,0.0
19.662497758865356,4095,4.0,30.0,0.0
19.675039529800415,0,4.0,30.0,0.0
19.68366241455078,4095,4.0,30.0,0.0
19.69286060333252,0,4.0,30.0,0.0
19.705021858215332,4095,4.0,30.0,0.0
19.714266061782837,0,4.0,30.0,0.0
19.724419116973877,4095,4.0,30.0,0.0
19.729719161987305,0,4.0,30.0,0.0
19.745149850845337,4095,4.0,30.0,0.0
19.754419326782227,0,4.0,30.0,0.0
19.76064133644104,4095,4.0,30.0,0.0
19.77482795715332,0,4.0,30.0,0.0
19.785470247268677,4095,4.0,30.0,0.0
19.791940450668335,0,4.0,30.0,0.0
19.80565643310547,4095,4.0,30.0,0.0
19.814884901046753,0,4.0,30.0,0.0
19.82458758354187,4095,4.0,30.0,0.0
19.830389261245728,0,4.0,30.0,0.0
19.844823837280273,4095,4.0,30.0,0.0
19.85348081588745,0,4.0,30.0,0.0
19.861308097839355,4095,4.0,30.0,0.0
19.875084400177002,4095,4.0,30.0,0.0
19.884476900100708,4095,4.0,30.0,0.0
19.891693592071533,4095,4.0,30.0,0.0
19.905617713928223,4095,4.0,30.0,0.0
19.915142059326172,4095,4.0,30.0,0.0
19.925118684768677,4095,4.0,30.0,0.0
19.935285806655884,4095,4.0,30.0,0.0
19.944619178771973,4095,4.0,30.0,0.0
19.952202796936035,4095,4.0,30.0,0.0
19.96185851097107,4095,4.0,30.0,0.0
19.97476816177368,4095,4.0,30.0,0.0
19.983893871307373,4095,4.0,30.0,0.0
19.99378776550293,4095,4.0,30.0,0.0
20.0054030418396,4095,4.0,30.0,0.0
20.014591455459595,4095,4.0,30.0,0.0
20.02518939971924,4095,4.0,30.0,0.0
20.03575611114502,4095,4.0,30.0,0.0
20.044426441192627,4095,4.0,30.0,0.0
20.05372929573059,4095,4.0,30.0,0.0
20.06049084663391,4095,4.0,30.0,0.0
20.07524037361145,4095,4.0,30.0,0.0
20.083719491958618,4095,4.0,30.0,0.0
20.091623783111572,4095,4.0,30.0,0.0
20.105198621749878,4095,4.0,30.0,0.0
20.113435745239258,4095,4.0,30.0,0.0
20.124941110610962,4095,4.0,30.0,0.0
20.134536266326904,4095,4.0,30.0,0.0
20.144642114639282,4095,4.0,30.0,0.0
20.15491533279419,4095,4.0,30.0,0.0
20.161292552947998,4095,4.0,30.0,0.0
20.17501711845398,4095,4.0,30.0,0.0
20.183614492416382,4095,4.0,30.0,0.0
20.194822072982788,4095,4.0,30.0,0.0
20.20485520362854,4095,4.0,30.0,0.0
20.21321749687195,4095,4.0,30.0,0.0
20.22525978088379,4095,4.0,30.0,0.0
20.235656261444092,4095,4.0,30.0,0.0
20.243156671524048,4095,4.0,30.0,0.0
20.251771211624146,4095,4.0,30.0,0.0
20.259357213974,4095,4.0,30.0,0.0
20.268091917037964,4095,4.0,30.0,0.0
20.28331232070923,4095,4.0,30.0,0.0
20.29335355758667,4095,4.0,30.0,0.0
20.304344654083252,4095,4.0,30.0,0.0
20.315239667892456,4095,4.0,30.0,0.0
20.32495427131653,4095,4.0,30.0,0.0
20.334675788879395,4095,4.0,30.0,0.0
20.34524965286255,4095,4.0,30.0,0.0
20.35458207130432,4095,4.0,30.0,0.0
20.365397691726685,4095,4.0,30.0,0.0
20.374427556991577,4095,4.0,30.0,0.0
20.384976148605347,4095,4.0,30.0,0.0
20.39225935935974,4095,4.0,30.0,0.0
20.405228853225708,4095,4.0,30.0,0.0
20.412540674209595,4095,4.0,30.0,0.0
20.425354480743408,4095,4.0,30.0,0.0
20.434885501861572,4095,4.0,30.0,0.0
20.44486403465271,4095,4.0,30.0,0.0
20.452115058898926,4095,4.0,30.0,0.0
20.46576714515686,4095,4.0,30.0,0.0
20.474814414978027,4095,4.0,30.0,0.0
20.482787370681763,4095,4.0,30.0,0.0
20.492383003234863,4095,4.0,30.0,0.0
20.504862546920776,4095,4.0,30.0,0.0
20.51266860961914,4095,4.0,30.0,0.0
20.525157928466797,4095,4.0,30.0,0.0
20.52801489830017,4095,4.0,30.0,0.0
20.54071545600891,4095,4.0,30.0,0.0
20.555386781692505,4095,4.0,30.0,0.0
20.564767360687256,4095,4.0,30.0,0.0
20.574958086013794,4095,4.0,30.0,0.0
20.584425449371338,4095,4.0,30.0,0.0
20.591925621032715,4095,4.0,30.0,0.0
20.605293035507202,4095,4.0,30.0,0.0
20.61086344718933,4095,4.0,30.0,0.0
20.624946355819702,4095,4.0,30.0,0.0
20.635085105895996,4095,4.0,30.0,0.0
20.642481565475464,4095,4.0,30.0,0.0
20.651574850082397,4095,4.0,30.0,0.0
20.664994716644287,4095,4.0,30.0,0.0
20.673816919326782,4095,4.0,30.0,0.0
20.684916496276855,4095,4.0,30.0,0.0
20.69489049911499,4095,4.0,30.0,0.0
20.696882009506226,4095,4.0,30.0,0.0
20.706921577453613,4095,4.0,30.0,0.0
20.716920614242554,4095,4.0,30.0,0.0
20.72799825668335,4095,4.0,30.0,0.0
20.738039255142212,4095,4.0,30.0,0.0
20.752405405044556,4095,4.0,30.0,0.0
20.76526141166687,4095,4.0,30.0,0.0
20.7748441696167,4095,4.0,30.0,0.0
20.784619331359863,4095,4.0,30.0,0.0
20.79504895210266,4095,4.0,30.0,0.0
20.805245399475098,4095,4.0,30.0,0.0
20.81174612045288,4095,4.0,30.0,0.0
20.821748733520508,4095,4.0,30.0,0.0
20.83174729347229,4095,4.0,30.0,0.0
20.84260106086731,4095,4.0,30.0,0.0
20.85263752937317,4095,4.0,30.0,0.0
20.864959239959717,4095,4.0,30.0,0.0
20.875113248825073,4095,4.0,30.0,0.0
20.88515567779541,4095,4.0,30.0,0.0
20.888261318206787,4095,4.0,30.0,0.0
20.898271799087524,4095,4.0,30.0,0.0
20.91104030609131,4095,4.0,30.0,0.0
20.92107582092285,4095,4.0,30.0,0.0
20.93406391143799,4095,4.0,30.0,0.0
20.944087266921997,4095,4.0,30.0,0.0
20.954087018966675,4095,4.0,30.0,0.0
20.964372396469116,4095,4.0,30.0,0.0
20.974806547164917,4095,4.0,30.0,0.0
20.985170364379883,4095,4.0,30.0,0.0
20.994490385055542,4095,4.0,30.0,0.0
21.004738092422485,4095,4.0,30.0,0.0
21.010962963104248,4095,4.0,30.0,0.0
21.025450468063354,4095,4.0,30.0,0.0
21.034795999526978,4095,4.0,30.0,0.0
21.035794258117676,4095,4.0,30.0,0.0
21.045811414718628,4095,4.0,30.0,0.0
21.055808782577515,4095,4.0,30.0,0.0
21.065804958343506,4095,4.0,30.0,0.0
21.07993173599243,4095,4.0,30.0,0.0
21.091360569000244,4095,4.0,30.0,0.0
21.101367712020874,4095,4.0,30.0,0.0
21.112393379211426,4095,4.0,30.0,0.0
21.125100135803223,4095,4.0,30.0,0.0
21.125100135803223,4095,4.0,30.0,0.0
21.137589931488037,4095,4.0,30.0,0.0
21.147608041763306,4095,4.0,30.0,0.0
21.15760850906372,4095,4.0,30.0,0.0
21.17522644996643,4095,4.0,30.0,0.0
21.185243368148804,4095,4.0,30.0,0.0
21.195074558258057,4095,4.0,30.0,0.0
21.20316219329834,4095,4.0,30.0,0.0
21.20843005180359,4095,4.0,30.0,0.0
21.224485158920288,4095,4.0,30.0,0.0
21.22548270225525,4095,4.0,30.0,0.0
21.23685383796692,4095,4.0,30.0,0.0
21.25517225265503,4095,4.0,30.0,0.0
21.264453411102295,4095,4.0,30.0,0.0
21.274479389190674,4095,4.0,30.0,0.0
21.284520149230957,4095,4.0,30.0,0.0
21.29450798034668,4095,4.0,30.0,0.0
21.30480694770813,4095,4.0,30.0,0.0
21.30580496788025,4095,4.0,30.0,0.0
21.31581449508667,4095,4.0,30.0,0.0
21.325814723968506,4095,4.0,30.0,0.0
21.335813999176025,4095,4.0,30.0,0.0
21.3458149433136,4095,4.0,30.0,0.0
21.355815172195435,4095,4.0,30.0,0.0
21.365814208984375,4095,4.0,30.0,0.0
21.375814199447632,4095,4.0,30.0,0.0
21.39174509048462,4095,4.0,30.0,0.0
21.405267477035522,4095,4.0,30.0,0.0
21.411293268203735,4095,4.0,30.0,0.0
21.423998832702637,4095,4.0,30.0,0.0
21.42958164215088,4095,4.0,30.0,0.0
21.441428661346436,4095,4.0,30.0,0.0
21.45338010787964,4095,4.0,30.0,0.0
21.46517515182495,4095,4.0,30.0,0.0
21.475522756576538,4095,4.0,30.0,0.0
21.476537942886353,4095,4.0,30.0,0.0
21.486549854278564,4095,4.0,30.0,0.0
21.49655055999756,4095,4.0,30.0,0.0
21.508891582489014,4095,4.0,30.0,0.0
21.518893003463745,4095,4.0,30.0,0.0
21.53020691871643,4095,4.0,30.0,0.0
21.54041862487793,4095,4.0,30.0,0.0
21.55137014389038,4095,4.0,30.0,0.0
21.561457633972168,4095,4.0,30.0,0.0
21.574557781219482,4095,4.0,30.0,0.0
21.575557947158813,4095,4.0,30.0,0.0
21.585928440093994,4095,4.0,30.0,0.0
21.599478721618652,4095,4.0,30.0,0.0
21.61486577987671,4095,4.0,30.0,0.0
21.625227212905884,4095,4.0,30.0,0.0
21.63424324989319,4095,4.0,30.0,0.0
21.641690492630005,4095,4.0,30.0,0.0
21.650542497634888,4095,4.0,30.0,0.0
21.659650802612305,4095,4.0,30.0,0.0
21.67511534690857,4095,4.0,30.0,0.0
21.68514347076416,4095,4.0,30.0,0.0
21.695407152175903,4095,4.0,30.0,0.0
21.702584981918335,4095,4.0,30.0,0.0
21.71451473236084,4095,4.0,30.0,0.0
21.72448420524597,4095,4.0,30.0,0.0
21.7337749004364,4095,4.0,30.0,0.0
21.745163679122925,4095,4.0,30.0,0.0
21.746158838272095,4095,4.0,30.0,0.0
21.756165504455566,4095,4.0,30.0,0.0
21.76616621017456,4095,4.0,30.0,0.0
21.776235580444336,4095,4.0,30.0,0.0
21.787224292755127,4095,4.0,30.0,0.0
21.801843404769897,4095,4.0,30.0,0.0
21.812305212020874,4095,4.0,30.0,0.0
21.819794178009033,4095,4.0,30.0,0.0
21.846924781799316,4095,4.0,30.0,0.0
21.846924781799316,4095,4.0,30.0,0.0
21.854918241500854,4095,4.0,30.0,0.0
21.863133192062378,1482,4.0,30.0,0.0
21.875107049942017,4095,4.0,30.0,0.0
21.87857151031494,558,4.0,30.0,0.0
21.892828226089478,4095,4.0,30.0,0.0
21.904740571975708,353,4.0,30.0,0.0
21.90984559059143,4095,4.0,30.0,0.0
21.92492127418518,1826,4.0,30.0,0.0
21.933260917663574,4095,4.0,30.0,0.0
21.942158460617065,1197,4.0,30.0,0.0
21.955294370651245,4095,4.0,30.0,0.0
21.96388602256775,642,4.0,30.0,0.0
21.974812030792236,4095,4.0,30.0,0.0
21.985018730163574,510,4.0,30.0,0.0
21.994603157043457,4095,4.0,30.0,0.0
22.0023193359375,368,4.0,30.0,0.0
22.01154923439026,4095,4.0,30.0,0.0
22.02470564842224,330,4.0,30.0,0.0
22.03305983543396,4095,4.0,30.0,0.0
22.0403573513031,331,4.0,30.0,0.0
22.055460691452026,4095,4.0,30.0,0.0
22.062720775604248,296,4.0,30.0,0.0
22.075198888778687,4095,4.0,30.0,0.0
22.084951639175415,325,4.0,30.0,0.0
22.09514284133911,4095,4.0,30.0,0.0
22.10144567489624,233,4.0,30.0,0.0
22.11549472808838,4095,4.0,30.0,0.0
22.12409520149231,211,4.0,30.0,0.0
22.135430574417114,4095,4.0,30.0,0.0
22.141098260879517,183,4.0,30.0,0.0
22.154932260513306,4095,4.0,30.0,0.0
22.165265560150146,154,4.0,30.0,0.0
22.17468571662903,4095,4.0,30.0,0.0
22.184571266174316,112,4.0,30.0,0.0
22.19324254989624,4095,4.0,30.0,0.0
22.204808473587036,55,4.0,30.0,0.0
22.215654850006104,4095,4.0,30.0,0.0
22.224771738052368,45,4.0,30.0,0.0
22.23383092880249,4095,4.0,30.0,0.0
22.24502921104431,27,4.0,30.0,0.0
22.25455093383789,4095,4.0,30.0,0.0
22.263241052627563,0,4.0,30.0,0.0
22.274654150009155,4095,4.0,30.0,0.0
22.285480499267578,14,4.0,30.0,0.0
22.29465079307556,4095,4.0,30.0,0.0
22.303755044937134,3,4.0,30.0,0.0
22.315448999404907,4095,4.0,30.0,0.0
22.32463502883911,32,4.0,30.0,0.0
22.331409215927124,4095,4.0,30.0,0.0
22.342031717300415,4,4.0,30.0,0.0
22.35444974899292,4095,4.0,30.0,0.0
22.3648841381073,0,4.0,30.0,0.0
22.37471342086792,4095,4.0,30.0,0.0
22.385183095932007,21,4.0,30.0,0.0
22.395182609558105,4095,4.0,30.0,0.0
22.400655031204224,16,4.0,30.0,0.0
22.415007829666138,4095,4.0,30.0,0.0
22.423494577407837,16,4.0,30.0,0.0
22.431339740753174,4095,4.0,30.0,0.0
22.445085287094116,6,4.0,30.0,0.0
22.45417857170105,4095,4.0,30.0,0.0
22.461926698684692,2,4.0,30.0,0.0
22.474615335464478,4095,4.0,30.0,0.0
22.484979152679443,3,4.0,30.0,0.0
22.49171805381775,4095,4.0,30.0,0.0
22.505379915237427,0,4.0,30.0,0.0
22.5148823261261,4095,4.0,30.0,0.0
22.515878438949585,0,4.0,30.0,0.0
22.526038646697998,4095,4.0,30.0,0.0
22.53864622116089,0,4.0,30.0,0.0
22.553947687149048,4095,4.0,30.0,0.0
22.565308094024658,0,4.0,30.0,0.0
22.575334548950195,4095,4.0,30.0,0.0
22.58464503288269,0,4.0,30.0,0.0
22.592353582382202,4095,4.0,30.0,0.0
22.60037136077881,0,4.0,30.0,0.0
22.614611864089966,4095,4.0,30.0,0.0
22.625267267227173,0,4.0,30.0,0.0
22.630728483200073,4095,4.0,30.0,0.0
22.64538025856018,116,4.0,30.0,0.0
22.65469789505005,4095,4.0,30.0,0.0
22.66441297531128,197,4.0,30.0,0.0
22.67530846595764,4095,4.0,30.0,0.0
22.68449902534485,0,4.0,30.0,0.0
22.695028066635132,4095,4.0,30.0,0.0
22.700720071792603,0,4.0,30.0,0.0
22.71526265144348,4095,4.0,30.0,0.0
22.724352598190308,0,4.0,30.0,0.0
22.73233723640442,4095,4.0,30.0,0.0
22.74495816230774,0,4.0,30.0,0.0
22.754722595214844,4095,4.0,30.0,0.0
22.761979341506958,0,4.0,30.0,0.0
22.77574110031128,4095,4.0,30.0,0.0
22.784814834594727,0,4.0,30.0,0.0
22.792388677597046,4095,4.0,30.0,0.0
22.80150294303894,371,4.0,30.0,0.0
22.81555962562561,4095,4.0,30.0,0.0
22.825194835662842,1434,4.0,30.0,0.0
22.832454919815063,4095,4.0,30.0,0.0
22.844411611557007,2219,4.0,30.0,0.0
22.853232622146606,4095,4.0,30.0,0.0
22.86174988746643,2265,4.0,30.0,0.0
22.875393629074097,4095,4.0,30.0,0.0
22.88544535636902,2666,4.0,30.0,0.0
22.89283275604248,4095,4.0,30.0,0.0
22.899421453475952,2793,4.0,30.0,0.0
22.914732694625854,4095,4.0,30.0,0.0
22.925292015075684,3347,4.0,30.0,0.0
22.931667804718018,4095,4.0,30.0,0.0
22.941232204437256,4095,4.0,30.0,0.0
22.95460295677185,4095,4.0,30.0,0.0
22.960697412490845,4095,4.0,30.0,0.0
22.975202083587646,4095,4.0,30.0,0.0
22.98365807533264,4095,4.0,30.0,0.0
22.99550151824951,4095,4.0,30.0,0.0
23.005805015563965,4095,4.0,30.0,0.0
23.014600038528442,4095,4.0,30.0,0.0
23.025313138961792,4095,4.0,30.0,0.0
23.029836654663086,4095,4.0,30.0,0.0
23.04463267326355,4095,4.0,30.0,0.0
23.052658796310425,4095,4.0,30.0,0.0
23.060580253601074,4095,4.0,30.0,0.0
23.074872493743896,4095,4.0,30.0,0.0
23.084951639175415,4095,4.0,30.0,0.0
23.09510588645935,4095,4.0,30.0,0.0
23.099401473999023,4095,4.0,30.0,0.0
23.115283489227295,4095,4.0,30.0,0.0
23.124818325042725,4095,4.0,30.0,0.0
23.129454851150513,2035,4.0,30.0,0.0
23.145007848739624,4095,4.0,30.0,0.0
23.153148651123047,4095,4.0,30.0,0.0
23.164424896240234,4095,4.0,30.0,0.0
23.175291776657104,4095,4.0,30.0,0.0
23.185629844665527,4095,4.0,30.0,0.0
23.190189123153687,4095,4.0,30.0,0.0
23.20583748817444,4095,4.0,30.0,0.0
23.21500587463379,4095,4.0,30.0,0.0
23.22510313987732,4095,4.0,30.0,0.0
23.23439335823059,4095,4.0,30.0,0.0
23.245481491088867,4095,4.0,30.0,0.0
23.25433874130249,4095,4.0,30.0,0.0
23.264856815338135,17,4.0,30.0,0.0
23.274569988250732,4095,4.0,30.0,0.0
23.283847332000732,0,4.0,30.0,0.0
23.294708013534546,4095,4.0,30.0,0.0
23.30132246017456,0,4.0,30.0,0.0
23.31465768814087,4095,4.0,30.0,0.0
23.32420301437378,0,4.0,30.0,0.0
23.334903717041016,4095,4.0,30.0,0.0
23.343618869781494,0,4.0,30.0,0.0
23.35306453704834,4095,4.0,30.0,0.0
23.36384129524231,0,4.0,30.0,0.0
23.374597311019897,4095,4.0,30.0,0.0
23.383354902267456,0,4.0,30.0,0.0
23.39515256881714,4095,4.0,30.0,0.0
23.402404069900513,0,4.0,30.0,0.0
23.41494846343994,4095,4.0,30.0,0.0
23.423653841018677,0,4.0,30.0,0.0
23.435759782791138,4095,4.0,30.0,0.0
23.444146156311035,0,4.0,30.0,0.0
23.455434560775757,4095,4.0,30.0,0.0
23.45954179763794,0,4.0,30.0,0.0
23.47490620613098,4095,4.0,30.0,0.0
23.483551025390625,0,4.0,30.0,0.0
23.495484113693237,4095,4.0,30.0,0.0
23.498714208602905,0,4.0,30.0,0.0
23.514445781707764,4095,4.0,30.0,0.0
23.523460388183594,0,4.0,30.0,0.0
23.534624576568604,4095,4.0,30.0,0.0
23.544039487838745,0,4.0,30.0,0.0
23.553226947784424,4095,4.0,30.0,0.0
23.56131863594055,0,4.0,30.0,0.0
23.57524275779724,4095,4.0,30.0,0.0
23.58329439163208,0,4.0,30.0,0.0
23.59051752090454,4095,4.0,30.0,0.0
23.597996711730957,0,4.0,30.0,0.0
23.614001750946045,4095,4.0,30.0,0.0
23.62379741668701,0,4.0,30.0,0.0
23.635234117507935,4095,4.0,30.0,0.0
23.64420223236084,0,4.0,30.0,0.0
23.655399084091187,4095,4.0,30.0,0.0
23.658180952072144,0,4.0,30.0,0.0
23.67547035217285,4095,4.0,30.0,0.0
23.683634281158447,0,4.0,30.0,0.0
23.695387363433838,4095,4.0,30.0,0.0
23.705400705337524,543,4.0,30.0,0.0
23.71550440788269,4095,4.0,30.0,0.0
23.724285364151,1641,4.0,30.0,0.0
23.73493194580078,4095,4.0,30.0,0.0
23.74522042274475,2581,4.0,30.0,0.0
23.754188060760498,4095,4.0,30.0,0.0
23.765671491622925,3823,4.0,30.0,0.0
23.775266647338867,4095,4.0,30.0,0.0
23.784950971603394,4095,4.0,30.0,0.0
23.79548931121826,4095,4.0,30.0,0.0
23.80512762069702,4095,4.0,30.0,0.0
23.815499782562256,4095,4.0,30.0,0.0
23.82441544532776,4095,4.0,30.0,0.0
23.834406852722168,4095,4.0,30.0,0.0
23.845462799072266,4095,4.0,30.0,0.0
23.85544466972351,2134,4.0,30.0,0.0
23.865546703338623,4095,4.0,30.0,0.0
23.874507188796997,3470,4.0,30.0,0.0
23.8854079246521,4095,4.0,30.0,0.0
23.895352125167847,4095,4.0,30.0,0.0
23.90466856956482,4095,4.0,30.0,0.0
23.915226221084595,4095,4.0,30.0,0.0
23.924811601638794,4095,4.0,30.0,0.0
23.93526315689087,4095,4.0,30.0,0.0
23.945156812667847,4095,4.0,30.0,0.0
23.953539609909058,4095,4.0,30.0,0.0
23.965513467788696,4095,4.0,30.0,0.0
23.97519040107727,4095,4.0,30.0,0.0
23.982524633407593,4095,4.0,30.0,0.0
23.99527931213379,4095,4.0,30.0,0.0
24.00540518760681,4095,4.0,30.0,0.0
24.01544451713562,4095,4.0,30.0,0.0
24.024991035461426,4095,4.0,30.0,0.0
24.03519082069397,4095,4.0,30.0,0.0
24.045336484909058,3302,4.0,30.0,0.0
24.055431842803955,4095,4.0,30.0,0.0
24.064916610717773,1967,4.0,30.0,0.0
24.074960947036743,4095,4.0,30.0,0.0
24.08445978164673,1808,4.0,30.0,0.0
24.095622777938843,4095,4.0,30.0,0.0
24.104182243347168,1556,4.0,30.0,0.0
24.107829809188843,4095,4.0,30.0,0.0
24.125264406204224,1344,4.0,30.0,0.0
24.135456085205078,4095,4.0,30.0,0.0
24.145440578460693,1056,4.0,30.0,0.0
24.155224561691284,4095,4.0,30.0,0.0
24.16453742980957,1585,4.0,30.0,0.0
24.1749107837677,4095,4.0,30.0,0.0
24.18092656135559,1400,4.0,30.0,0.0
24.195578813552856,4095,4.0,30.0,0.0
24.205040454864502,798,4.0,30.0,0.0
24.211584329605103,4095,4.0,30.0,0.0
24.22534728050232,349,4.0,30.0,0.0
24.234686613082886,4095,4.0,30.0,0.0
24.245376110076904,64,4.0,30.0,0.0
24.254472494125366,4095,4.0,30.0,0.0
24.265401363372803,1581,4.0,30.0,0.0
24.274725198745728,4095,4.0,30.0,0.0
24.28063440322876,2671,4.0,30.0,0.0
24.295215129852295,4095,4.0,30.0,0.0
24.304649829864502,2482,4.0,30.0,0.0
24.31544852256775,4095,4.0,30.0,0.0
24.324676513671875,2320,4.0,30.0,0.0
24.3353328704834,4095,4.0,30.0,0.0
24.34408688545227,4095,4.0,30.0,0.0
24.35421109199524,4095,4.0,30.0,0.0
24.36471700668335,4095,4.0,30.0,0.0
24.375154495239258,4095,4.0,30.0,0.0
24.381364822387695,4095,4.0,30.0,0.0
24.39486837387085,4095,4.0,30.0,0.0
24.403398036956787,4095,4.0,30.0,0.0
24.411421537399292,4095,4.0,30.0,0.0
24.424622058868408,4095,4.0,30.0,0.0
24.435256958007812,4095,4.0,30.0,0.0
24.444825649261475,4095,4.0,30.0,0.0
24.45444631576538,4095,4.0,30.0,0.0
24.464783668518066,4095,4.0,30.0,0.0
24.475457429885864,4095,4.0,30.0,0.0
24.48554277420044,4095,4.0,30.0,0.0
24.495502948760986,4095,4.0,30.0,0.0
24.50428795814514,4095,4.0,30.0,0.0
24.512171745300293,4095,4.0,30.0,0.0
24.525280714035034,4095,4.0,30.0,0.0
24.5345675945282,4095,4.0,30.0,0.0
24.540197372436523,4095,4.0,30.0,0.0
24.555474996566772,4095,4.0,30.0,0.0
24.564348459243774,3445,4.0,30.0,0.0
24.574918508529663,4095,4.0,30.0,0.0
24.579707622528076,2368,4.0,30.0,0.0
24.595436573028564,4095,4.0,30.0,0.0
24.604243516921997,1253,4.0,30.0,0.0
24.609944820404053,4095,4.0,30.0,0.0
24.625450134277344,995,4.0,30.0,0.0
24.634333610534668,4095,4.0,30.0,0.0
24.64441156387329,752,4.0,30.0,0.0
24.655412435531616,4095,4.0,30.0,0.0
24.665447235107422,752,4.0,30.0,0.0
24.675419092178345,4095,4.0,30.0,0.0
24.685407161712646,797,4.0,30.0,0.0
24.695446014404297,4095,4.0,30.0,0.0
24.704460382461548,747,4.0,30.0,0.0
24.71439528465271,4095,4.0,30.0,0.0
24.725301027297974,879,4.0,30.0,0.0
24.73538374900818,4095,4.0,30.0,0.0
24.74445080757141,957,4.0,30.0,0.0
24.754430055618286,4095,4.0,30.0,0.0
24.765384435653687,958,4.0,30.0,0.0
24.77456784248352,4095,4.0,30.0,0.0
24.784735441207886,1228,4.0,30.0,0.0
24.79530954360962,4095,4.0,30.0,0.0
24.805317878723145,4095,4.0,30.0,0.0
24.810070753097534,4095,4.0,30.0,0.0
24.825122594833374,4095,4.0,30.0,0.0
24.826108694076538,4095,4.0,30.0,0.0
24.845289945602417,875,4.0,30.0,0.0
24.855325937271118,718,4.0,30.0,0.0
24.865299224853516,442,4.0,30.0,0.0
24.874307870864868,773,4.0,30.0,0.0
24.885304927825928,386,4.0,30.0,0.0
24.89429497718811,592,4.0,30.0,0.0
24.90531086921692,987,4.0,30.0,0.0
24.914327383041382,4095,4.0,30.0,0.0
24.925169229507446,4095,4.0,30.0,0.0
24.926159381866455,4095,4.0,30.0,0.0
24.943968772888184,4095,4.0,30.0,0.0
24.955068588256836,4095,4.0,30.0,0.0
24.964319705963135,4095,4.0,30.0,0.0
24.965316772460938,4095,4.0,30.0,0.0
24.984294176101685,4095,4.0,30.0,0.0
24.995017051696777,4095,4.0,30.0,0.0
25.00516986846924,4095,4.0,30.0,0.0
25.008822679519653,4095,4.0,30.0,0.0
25.02514338493347,4095,4.0,30.0,0.0
25.027345657348633,4095,4.0,30.0,0.0
25.044297695159912,4095,4.0,30.0,0.0
25.05430006980896,4095,4.0,30.0,0.0
25.062754154205322,4095,4.0,30.0,0.0
25.07537341117859,4095,4.0,30.0,0.0
25.084293127059937,4095,4.0,30.0,0.0
25.095327615737915,4095,4.0,30.0,0.0
25.105305671691895,4095,4.0,30.0,0.0
25.11429476737976,4095,4.0,30.0,0.0
25.12523055076599,4095,4.0,30.0,0.0
25.126216650009155,4095,4.0,30.0,0.0
25.14528512954712,4095,4.0,30.0,0.0
25.155317068099976,4095,4.0,30.0,0.0
25.158604383468628,4095,4.0,30.0,0.0
25.174402236938477,4095,4.0,30.0,0.0
25.18441390991211,4095,4.0,30.0,0.0
25.19442057609558,413,4.0,30.0,0.0
25.204429388046265,465,4.0,30.0,0.0
25.21449041366577,357,4.0,30.0,0.0
25.224206924438477,246,4.0,30.0,0.0
25.233208179473877,94,4.0,30.0,0.0
25.240703344345093,595,4.0,30.0,0.0
25.255316019058228,4095,4.0,30.0,0.0
25.26529312133789,4095,4.0,30.0,0.0
25.275223970413208,4095,4.0,30.0,0.0
25.284290552139282,4095,4.0,30.0,0.0
25.29492688179016,4095,4.0,30.0,0.0
25.301445245742798,4095,4.0,30.0,0.0
25.31533169746399,4095,4.0,30.0,0.0
25.325290203094482,4095,4.0,30.0,0.0
25.335304021835327,4095,4.0,30.0,0.0
25.345304489135742,4095,4.0,30.0,0.0
25.355285167694092,4095,4.0,30.0,0.0
25.36530828475952,4095,4.0,30.0,0.0
25.37530493736267,4095,4.0,30.0,0.0
25.385292768478394,4095,4.0,30.0,0.0
25.395283937454224,4095,4.0,30.0,0.0
25.405311584472656,4095,4.0,30.0,0.0
25.414306640625,4095,4.0,30.0,0.0
25.424736499786377,4095,4.0,30.0,0.0
25.435219049453735,4095,4.0,30.0,0.0
25.442143440246582,4095,4.0,30.0,0.0
25.455283403396606,4095,4.0,30.0,0.0
25.45733141899109,4095,4.0,30.0,0.0
25.475269317626953,4095,4.0,30.0,0.0
25.485279083251953,4095,4.0,30.0,0.0
25.494286060333252,4095,4.0,30.0,0.0
25.49528217315674,4095,4.0,30.0,0.0
25.515263557434082,4095,4.0,30.0,0.0
25.52529263496399,4095,4.0,30.0,0.0
25.53530526161194,4095,4.0,30.0,0.0
25.545278787612915,4095,4.0,30.0,0.0
25.555314302444458,4095,4.0,30.0,0.0
25.56531548500061,4095,4.0,30.0,0.0
25.575304746627808,4095,4.0,30.0,0.0
25.58531093597412,4095,4.0,30.0,0.0
25.59429907798767,4095,4.0,30.0,0.0
25.605268001556396,4095,4.0,30.0,0.0
25.615291833877563,4095,4.0,30.0,0.0
25.62430238723755,4095,4.0,30.0,0.0
25.6286883354187,4095,4.0,30.0,0.0
25.645289659500122,4095,4.0,30.0,0.0
25.655295610427856,4095,4.0,30.0,0.0
25.660059452056885,4095,4.0,30.0,0.0
25.67530608177185,4095,4.0,30.0,0.0
25.68529486656189,4095,4.0,30.0,0.0
25.695281267166138,4095,4.0,30.0,0.0
25.705343008041382,4095,4.0,30.0,0.0
25.714340448379517,4095,4.0,30.0,0.0
25.725247859954834,4095,4.0,30.0,0.0
25.735326051712036,4095,4.0,30.0,0.0
25.745306968688965,4095,4.0,30.0,0.0
25.75434184074402,4095,4.0,30.0,0.0
25.76534152030945,4095,4.0,30.0,0.0
25.77532172203064,4095,4.0,30.0,0.0
25.784340858459473,4095,4.0,30.0,0.0
25.794354677200317,4095,4.0,30.0,0.0
25.804906845092773,4095,4.0,30.0,0.0
25.815330028533936,4095,4.0,30.0,0.0
25.825334787368774,4095,4.0,30.0,0.0
25.834943532943726,4095,4.0,30.0,0.0
25.845317840576172,4095,4.0,30.0,0.0
25.855318307876587,4095,4.0,30.0,0.0
25.859691858291626,4095,4.0,30.0,0.0
25.873912572860718,4095,4.0,30.0,0.0
25.885322093963623,4095,4.0,30.0,0.0
25.894346237182617,4095,4.0,30.0,0.0
25.905323266983032,4095,4.0,30.0,0.0
25.91433811187744,4095,4.0,30.0,0.0
25.92434787750244,4095,4.0,30.0,0.0
25.93531346321106,4095,4.0,30.0,0.0
25.945322275161743,4095,4.0,30.0,0.0
25.954343795776367,4095,4.0,30.0,0.0
25.96538209915161,4095,4.0,30.0,0.0
25.974351406097412,4095,4.0,30.0,0.0
25.985315322875977,4095,4.0,30.0,0.0
25.994349002838135,4095,4.0,30.0,0.0
26.004343509674072,4095,4.0,30.0,0.0
26.01534128189087,4095,4.0,30.0,0.0
26.025330305099487,4095,4.0,30.0,0.0
26.034359216690063,4095,4.0,30.0,0.0
26.044331312179565,4095,4.0,30.0,0.0
26.054722547531128,4095,4.0,30.0,0.0
26.064372301101685,4095,4.0,30.0,0.0
26.07423996925354,4095,4.0,30.0,0.0
26.08494782447815,4095,4.0,30.0,0.0
26.090547561645508,4095,4.0,30.0,0.0
26.10451650619507,4095,4.0,30.0,0.0
26.115458965301514,4095,4.0,30.0,0.0
26.124507904052734,4095,4.0,30.0,0.0
26.13448190689087,4095,4.0,30.0,0.0
26.14450430870056,4095,4.0,30.0,0.0
26.154369831085205,4095,4.0,30.0,0.0
26.164368629455566,4095,4.0,30.0,0.0
26.174354553222656,4095,4.0,30.0,0.0
26.185332775115967,4095,4.0,30.0,0.0
26.195346355438232,4095,4.0,30.0,0.0
26.204360485076904,4095,4.0,30.0,0.0
26.215338945388794,4095,4.0,30.0,0.0
26.225300788879395,4095,4.0,30.0,0.0
26.235356330871582,4095,4.0,30.0,0.0
26.2453031539917,4095,4.0,30.0,0.0
26.254361391067505,4095,4.0,30.0,0.0
26.26431155204773,4095,4.0,30.0,0.0
26.27479338645935,4095,4.0,30.0,0.0
26.28531551361084,4095,4.0,30.0,0.0
26.295081853866577,4095,4.0,30.0,0.0
26.30437207221985,4095,4.0,30.0,0.0
26.3081214427948,4095,4.0,30.0,0.0
26.32420539855957,4095,4.0,30.0,0.0
26.327102661132812,4095,4.0,30.0,0.0
26.34433937072754,4095,4.0,30.0,0.0
26.355339288711548,4095,4.0,30.0,0.0
26.365467309951782,4095,4.0,30.0,0.0
26.374483823776245,4095,4.0,30.0,0.0
26.384476900100708,4095,4.0,30.0,0.0
26.395409107208252,4095,4.0,30.0,0.0
26.404453992843628,4095,4.0,30.0,0.0
26.414342641830444,4095,4.0,30.0,0.0
26.425323963165283,4095,4.0,30.0,0.0
26.434360027313232,4095,4.0,30.0,0.0
26.4443461894989,4095,4.0,30.0,0.0
26.45433521270752,4095,4.0,30.0,0.0
26.464311361312866,4095,4.0,30.0,0.0
26.4749174118042,4095,4.0,30.0,0.0
26.484370946884155,4095,4.0,30.0,0.0
26.494361877441406,4095,4.0,30.0,0.0
26.504366159439087,4095,4.0,30.0,0.0
26.515092849731445,4095,4.0,30.0,0.0
26.5243239402771,4095,4.0,30.0,0.0
26.52532172203064,4095,4.0,30.0,0.0
26.544363737106323,4095,4.0,30.0,0.0
26.55435824394226,4095,4.0,30.0,0.0
26.56433629989624,4095,4.0,30.0,0.0
26.5753493309021,4095,4.0,30.0,0.0
26.58435344696045,4095,4.0,30.0,0.0
26.594318151474,4095,4.0,30.0,0.0
26.60436487197876,4095,4.0,30.0,0.0
26.614368438720703,4095,4.0,30.0,0.0
26.62435269355774,4095,4.0,30.0,0.0
26.634336233139038,4095,4.0,30.0,0.0
26.644320726394653,4095,4.0,30.0,0.0
26.655362606048584,4095,4.0,30.0,0.0
26.66434359550476,4095,4.0,30.0,0.0
26.674407243728638,4095,4.0,30.0,0.0
26.68495202064514,4095,4.0,30.0,0.0
26.6934871673584,4095,4.0,30.0,0.0
26.70436382293701,4095,4.0,30.0,0.0
26.714319944381714,4095,4.0,30.0,0.0
26.725284337997437,4095,4.0,30.0,0.0
26.734360933303833,4095,4.0,30.0,0.0
26.744361400604248,4095,4.0,30.0,0.0
26.754367351531982,4095,4.0,30.0,0.0
26.765321016311646,4095,4.0,30.0,0.0
26.774372339248657,4095,4.0,30.0,0.0
26.784332752227783,4095,4.0,30.0,0.0
26.794336318969727,4095,4.0,30.0,0.0
26.804368495941162,4095,4.0,30.0,0.0
26.814345836639404,4095,4.0,30.0,0.0
26.824408292770386,4095,4.0,30.0,0.0
26.83491039276123,4095,4.0,30.0,0.0
26.842050552368164,4095,4.0,30.0,0.0
26.854340314865112,4095,4.0,30.0,0.0
26.864346265792847,4095,4.0,30.0,0.0
26.87437343597412,4095,4.0,30.0,0.0
26.884361028671265,4095,4.0,30.0,0.0
26.895178079605103,4095,4.0,30.0,0.0
26.904497146606445,4075,4.0,30.0,0.0
26.90939164161682,4095,4.0,30.0,0.0
26.92526412010193,3874,4.0,30.0,0.0
26.93326735496521,4095,4.0,30.0,0.0
26.944485425949097,3680,4.0,30.0,0.0
26.95450735092163,4095,4.0,30.0,0.0
26.9644877910614,3429,4.0,30.0,0.0
26.974499940872192,4095,4.0,30.0,0.0
26.984558820724487,3529,4.0,30.0,0.0
26.994366884231567,4095,4.0,30.0,0.0
27.004331827163696,3184,4.0,30.0,0.0
27.015318870544434,4095,4.0,30.0,0.0
27.024370908737183,3127,4.0,30.0,0.0
27.034332513809204,4095,4.0,30.0,0.0
27.044337272644043,2899,4.0,30.0,0.0
27.05433702468872,4095,4.0,30.0,0.0
27.064342498779297,2702,4.0,30.0,0.0
27.07436990737915,4095,4.0,30.0,0.0
27.08436346054077,2395,4.0,30.0,0.0
27.094361305236816,4095,4.0,30.0,0.0
27.10498595237732,2446,4.0,30.0,0.0
27.113213539123535,4095,4.0,30.0,0.0
27.12425398826599,2128,4.0,30.0,0.0
27.134973287582397,4095,4.0,30.0,0.0
27.141337156295776,2141,4.0,30.0,0.0
27.15452790260315,4095,4.0,30.0,0.0
27.164522647857666,2128,4.0,30.0,0.0
27.174513816833496,4095,4.0,30.0,0.0
27.184462547302246,2026,4.0,30.0,0.0
27.194523096084595,4095,4.0,30.0,0.0
27.204408645629883,1858,4.0,30.0,0.0
27.214343070983887,4095,4.0,30.0,0.0
27.224342346191406,1830,4.0,30.0,0.0
27.234360218048096,4095,4.0,30.0,0.0
27.244364738464355,1749,4.0,30.0,0.0
27.254333972930908,4095,4.0,30.0,0.0
27.26532220840454,1585,4.0,30.0,0.0
27.27434515953064,4095,4.0,30.0,0.0
27.284334421157837,1554,4.0,30.0,0.0
27.294322729110718,4095,4.0,30.0,0.0
27.304333209991455,1481,4.0,30.0,0.0
27.314794301986694,4095,4.0,30.0,0.0
27.32446789741516,1287,4.0,30.0,0.0
27.334353923797607,4095,4.0,30.0,0.0
27.344035387039185,873,4.0,30.0,0.0
27.35028910636902,4095,4.0,30.0,0.0
27.364344835281372,1413,4.0,30.0,0.0
27.37440252304077,4095,4.0,30.0,0.0
27.384355068206787,2720,4.0,30.0,0.0
27.394407272338867,4095,4.0,30.0,0.0
27.404333353042603,3143,4.0,30.0,0.0
27.414319038391113,4095,4.0,30.0,0.0
27.4243221282959,3277,4.0,30.0,0.0
27.43535852432251,4095,4.0,30.0,0.0
27.436352252960205,3241,4.0,30.0,0.0
27.45440411567688,4095,4.0,30.0,0.0
27.46434235572815,3303,4.0,30.0,0.0
27.47434902191162,4095,4.0,30.0,0.0
27.484333276748657,3293,4.0,30.0,0.0
27.494317531585693,4095,4.0,30.0,0.0
27.504334926605225,3614,4.0,30.0,0.0
27.505332946777344,4095,4.0,30.0,0.0
27.525007009506226,3763,4.0,30.0,0.0
27.53442692756653,4095,4.0,30.0,0.0
27.54081130027771,3826,4.0,30.0,0.0
27.554356813430786,4095,4.0,30.0,0.0
27.55723524093628,3793,4.0,30.0,0.0
27.575361490249634,4095,4.0,30.0,0.0
27.576359272003174,3837,4.0,30.0,0.0
27.594493627548218,4095,4.0,30.0,0.0
27.604498863220215,3984,4.0,30.0,0.0
27.61451005935669,4095,4.0,30.0,0.0
27.624558448791504,3974,4.0,30.0,0.0
27.634535789489746,4095,4.0,30.0,0.0
27.644527435302734,3805,4.0,30.0,0.0
27.6545193195343,4095,4.0,30.0,0.0
27.664496421813965,3703,4.0,30.0,0.0
27.6745183467865,4095,4.0,30.0,0.0
27.684330224990845,3305,4.0,30.0,0.0
27.69433903694153,4095,4.0,30.0,0.0
27.70437788963318,3434,4.0,30.0,0.0
27.71434712409973,4095,4.0,30.0,0.0
27.724365949630737,3295,4.0,30.0,0.0
27.734516382217407,4095,4.0,30.0,0.0
27.739318132400513,3363,4.0,30.0,0.0
27.75443148612976,4095,4.0,30.0,0.0
27.75723934173584,3269,4.0,30.0,0.0
27.774328470230103,4095,4.0,30.0,0.0
27.784329891204834,3215,4.0,30.0,0.0
27.793522119522095,4095,4.0,30.0,0.0
27.80482053756714,3131,4.0,30.0,0.0
27.8058180809021,4095,4.0,30.0,0.0
27.824949741363525,3168,4.0,30.0,0.0
27.835318326950073,4095,4.0,30.0,0.0
27.84452748298645,2791,4.0,30.0,0.0
27.84552264213562,4095,4.0,30.0,0.0
27.86468195915222,2368,4.0,30.0,0.0
27.874501943588257,4095,4.0,30.0,0.0
27.885591983795166,2852,4.0,30.0,0.0
27.89552354812622,4095,4.0,30.0,0.0
27.904520750045776,2912,4.0,30.0,0.0
27.915727376937866,4095,4.0,30.0,0.0
27.925477981567383,2969,4.0,30.0,0.0
27.935460805892944,4095,4.0,30.0,0.0
27.944517850875854,3089,4.0,30.0,0.0
27.95030689239502,4095,4.0,30.0,0.0
27.964871644973755,2853,4.0,30.0,0.0
27.975138664245605,4095,4.0,30.0,0.0
27.984473943710327,2193,4.0,30.0,0.0
27.99045157432556,4095,4.0,30.0,0.0
27.99850630760193,3715,4.0,30.0,0.0
28.00657367706299,4095,4.0,30.0,0.0
28.016574382781982,2626,4.0,30.0,0.0
28.02657389640808,4095,4.0,30.0,0.0
28.044527053833008,2170,4.0,30.0,0.0
28.054482221603394,4095,4.0,30.0,0.0
28.055479049682617,1562,4.0,30.0,0.0
28.07450580596924,4095,4.0,30.0,0.0
28.075504541397095,1068,4.0,30.0,0.0
28.08551001548767,4095,4.0,30.0,0.0
28.10445237159729,1151,4.0,30.0,0.0
28.114388465881348,4095,4.0,30.0,0.0
28.115384817123413,726,4.0,30.0,0.0
28.125388383865356,4095,4.0,30.0,0.0
28.136852741241455,256,4.0,30.0,0.0
28.14689350128174,4095,4.0,30.0,0.0
28.15950584411621,267,4.0,30.0,0.0
28.17386746406555,4095,4.0,30.0,0.0
28.18257713317871,1078,4.0,30.0,0.0
28.191952228546143,4095,4.0,30.0,0.0
28.203623294830322,1006,4.0,30.0,0.0
28.205798625946045,4095,4.0,30.0,0.0
28.225293397903442,1615,4.0,30.0,0.0
28.225293397903442,112,4.0,30.0,0.0
28.23529624938965,44,4.0,30.0,0.0
28.254395246505737,2190,4.0,30.0,0.0
28.25755524635315,0,4.0,30.0,0.0
28.267590761184692,2145,4.0,30.0,0.0
28.27759099006653,0,4.0,30.0,0.0
28.287590980529785,758,4.0,30.0,0.0
28.2975914478302,0,4.0,30.0,0.0
28.314375638961792,1491,4.0,30.0,0.0
28.316370010375977,0,4.0,30.0,0.0
28.326407194137573,1027,4.0,30.0,0.0
28.336406469345093,0,4.0,30.0,0.0
28.34640622138977,687,4.0,30.0,0.0
28.356406688690186,0,4.0,30.0,0.0
28.366406440734863,2743,4.0,30.0,0.0
28.3823139667511,0,4.0,30.0,0.0
28.394165754318237,3621,4.0,30.0,0.0
28.40084409713745,0,4.0,30.0,0.0
28.414098739624023,4095,4.0,30.0,0.0
28.423850059509277,0,4.0,30.0,0.0
28.433220863342285,4095,4.0,30.0,0.0
28.441264867782593,0,4.0,30.0,0.0
28.454113960266113,4095,4.0,30.0,0.0
28.46252751350403,0,4.0,30.0,0.0
28.473498821258545,4095,4.0,30.0,0.0
28.4834988117218,0,4.0,30.0,0.0
28.493500471115112,2204,4.0,30.0,0.0
28.503499507904053,0,4.0,30.0,0.0
28.506523609161377,4095,4.0,30.0,0.0
28.517672300338745,0,4.0,30.0,0.0
28.528605461120605,2161,4.0,30.0,0.0
28.538604021072388,0,4.0,30.0,0.0
28.548604249954224,4095,4.0,30.0,0.0
28.558604955673218,0,4.0,30.0,0.0
28.56860375404358,4095,4.0,30.0,0.0
28.578603982925415,0,4.0,30.0,0.0
28.58860421180725,4095,4.0,30.0,0.0
28.60105800628662,0,4.0,30.0,0.0
28.6141300201416,4095,4.0,30.0,0.0
28.622463941574097,0,4.0,30.0,0.0
28.626540660858154,4095,4.0,30.0,0.0
28.64042043685913,167,4.0,30.0,0.0
28.649469137191772,4095,4.0,30.0,0.0
28.66422939300537,371,4.0,30.0,0.0
28.67427968978882,4095,4.0,30.0,0.0
28.675275087356567,403,4.0,30.0,0.0
28.685317754745483,4095,4.0,30.0,0.0
28.69531750679016,4095,4.0,30.0,0.0
28.70753002166748,4095,4.0,30.0,0.0
28.717564344406128,4095,4.0,30.0,0.0
28.72756552696228,4095,4.0,30.0,0.0
28.737565279006958,4095,4.0,30.0,0.0
28.747564554214478,4095,4.0,30.0,0.0
28.75756525993347,4095,4.0,30.0,0.0
28.76756477355957,4095,4.0,30.0,0.0
28.777565956115723,4095,4.0,30.0,0.0
28.790868759155273,4095,4.0,30.0,0.0
28.800904989242554,4095,4.0,30.0,0.0
28.81386160850525,4095,4.0,30.0,0.0
28.82242226600647,4095,4.0,30.0,0.0
28.83394455909729,4095,4.0,30.0,0.0
28.841325044631958,4095,4.0,30.0,0.0
28.8493435382843,4095,4.0,30.0,0.0
28.857000827789307,4095,4.0,30.0,0.0
28.873735189437866,4095,4.0,30.0,0.0
28.87473201751709,4095,4.0,30.0,0.0
28.885984897613525,4095,4.0,30.0,0.0
28.903839588165283,4095,4.0,30.0,0.0
28.906346559524536,4095,4.0,30.0,0.0
28.916351795196533,4095,4.0,30.0,0.0
28.926350831985474,4095,4.0,30.0,0.0
28.94410014152527,4095,4.0,30.0,0.0
28.954115867614746,4095,4.0,30.0,0.0
28.964114665985107,4095,4.0,30.0,0.0
28.974119186401367,4095,4.0,30.0,0.0
28.984111309051514,4095,4.0,30.0,0.0
28.99411177635193,4095,4.0,30.0,0.0
29.00429344177246,4095,4.0,30.0,0.0
29.007139921188354,4095,4.0,30.0,0.0
29.017157554626465,4095,4.0,30.0,0.0
29.030608415603638,4095,4.0,30.0,0.0
29.043822288513184,4095,4.0,30.0,0.0
29.054232358932495,4095,4.0,30.0,0.0
29.061830043792725,4095,4.0,30.0,0.0
29.07258653640747,4095,4.0,30.0,0.0
29.08383321762085,4095,4.0,30.0,0.0
29.093512773513794,4095,4.0,30.0,0.0
29.10112428665161,4095,4.0,30.0,0.0
29.110263347625732,4095,4.0,30.0,0.0
29.123548984527588,4095,4.0,30.0,0.0
29.13182806968689,4095,4.0,30.0,0.0
29.13954782485962,4095,4.0,30.0,0.0
29.153860330581665,4095,4.0,30.0,0.0
29.16391372680664,4095,4.0,30.0,0.0
29.17325520515442,4095,4.0,30.0,0.0
29.183602809906006,4095,4.0,30.0,0.0
29.194150924682617,4095,4.0,30.0,0.0
29.203927278518677,4095,4.0,30.0,0.0
29.214274644851685,4095,4.0,30.0,0.0
29.223724126815796,4095,4.0,30.0,0.0
29.233890295028687,4095,4.0,30.0,0.0
29.242892503738403,4095,4.0,30.0,0.0
29.253788709640503,4095,4.0,30.0,0.0
29.26370072364807,4095,4.0,30.0,0.0
29.2735493183136,4095,4.0,30.0,0.0
29.283737182617188,4095,4.0,30.0,0.0
29.292996406555176,4095,4.0,30.0,0.0
29.303257942199707,4095,4.0,30.0,0.0
29.314107179641724,4095,4.0,30.0,0.0
29.32431960105896,4095,4.0,30.0,0.0
29.333856105804443,4095,4.0,30.0,0.0
29.34393858909607,4095,4.0,30.0,0.0
29.353703498840332,4095,4.0,30.0,0.0
29.361071348190308,4095,4.0,30.0,0.0
29.374161958694458,4095,4.0,30.0,0.0
29.384033203125,4095,4.0,30.0,0.0
29.393789529800415,4095,4.0,30.0,0.0
29.401320219039917,4095,4.0,30.0,0.0
29.408807039260864,4095,4.0,30.0,0.0
29.423840761184692,4095,4.0,30.0,0.0
29.43338108062744,4095,4.0,30.0,0.0
29.439847469329834,4095,4.0,30.0,0.0
29.45342516899109,4095,4.0,30.0,0.0
29.464051008224487,4095,4.0,30.0,0.0
29.47321915626526,4095,4.0,30.0,0.0
29.483870029449463,4095,4.0,30.0,0.0
29.493634462356567,4095,4.0,30.0,0.0
29.503944873809814,4095,4.0,30.0,0.0
29.513623476028442,4095,4.0,30.0,0.0
29.522264003753662,4095,4.0,30.0,0.0
29.534101724624634,4095,4.0,30.0,0.0
29.544055938720703,4095,4.0,30.0,0.0
29.554101705551147,4095,4.0,30.0,0.0
29.564143896102905,4095,4.0,30.0,0.0
29.573758363723755,4095,4.0,30.0,0.0
29.58395767211914,4095,4.0,30.0,0.0
29.585954904556274,4095,4.0,30.0,0.0
29.603670120239258,4095,4.0,30.0,0.0
29.613309144973755,4095,4.0,30.0,0.0
29.623663663864136,4095,4.0,30.0,0.0
29.63342046737671,4095,4.0,30.0,0.0
29.643461227416992,4095,4.0,30.0,0.0
29.653675079345703,4095,4.0,30.0,0.0
29.664864540100098,4095,4.0,30.0,0.0
29.674294471740723,4095,4.0,30.0,0.0
29.683499813079834,4095,4.0,30.0,0.0
29.69377374649048,4095,4.0,30.0,0.0
29.70352053642273,4095,4.0,30.0,0.0
29.714141368865967,4095,4.0,30.0,0.0
29.724000215530396,4095,4.0,30.0,0.0
29.732755422592163,4095,4.0,30.0,0.0
29.743786811828613,4095,4.0,30.0,0.0
29.754254579544067,4095,4.0,30.0,0.0
29.76190495491028,4095,4.0,30.0,0.0
29.773378372192383,4095,4.0,30.0,0.0
29.784314393997192,4095,4.0,30.0,0.0
29.793917179107666,4095,4.0,30.0,0.0
29.798506259918213,4095,4.0,30.0,0.0
29.81393003463745,4095,4.0,30.0,0.0
29.823694229125977,4095,4.0,30.0,0.0
29.830190896987915,4095,4.0,30.0,0.0
29.843847274780273,4095,4.0,30.0,0.0
29.85423254966736,4095,4.0,30.0,0.0
29.86382532119751,4095,4.0,30.0,0.0
29.873740673065186,4095,4.0,30.0,0.0
29.883440732955933,4095,4.0,30.0,0.0
29.89254641532898,4095,4.0,30.0,0.0
29.90339159965515,4095,4.0,30.0,0.0
29.91354274749756,4095,4.0,30.0,0.0
29.924326181411743,4095,4.0,30.0,0.0
29.933732986450195,4095,4.0,30.0,0.0
29.943319082260132,4095,4.0,30.0,0.0
29.95427179336548,4095,4.0,30.0,0.0
29.96359157562256,4095,4.0,30.0,0.0
29.973699808120728,4095,4.0,30.0,0.0
29.983479976654053,4095,4.0,30.0,0.0
29.9923574924469,4095,4.0,30.0,0.0
