Timestamp,EMG Value,massage_speed,massage_duration,relaxment_level
0.0009920597076416016,4095,0.0,0.0,3.0
0.01514744758605957,545,0.0,0.0,3.0
0.02574014663696289,4095,0.0,0.0,3.0
0.0267336368560791,597,0.0,0.0,3.0
0.036788225173950195,4095,0.0,0.0,3.0
0.04678773880004883,629,0.0,0.0,3.0
0.05678868293762207,4095,0.0,0.0,3.0
0.0667886734008789,649,0.0,0.0,3.0
0.07678723335266113,4095,0.0,0.0,3.0
0.08678841590881348,723,0.0,0.0,3.0
0.09796261787414551,4095,0.0,0.0,3.0
0.10797548294067383,710,0.0,0.0,3.0
0.1191258430480957,4095,0.0,0.0,3.0
0.13455939292907715,729,0.0,0.0,3.0
0.13716483116149902,4095,0.0,0.0,3.0
0.14835524559020996,775,0.0,0.0,3.0
0.15840578079223633,4095,0.0,0.0,3.0
0.16840481758117676,806,0.0,0.0,3.0
0.17840576171875,4095,0.0,0.0,3.0
0.18840670585632324,832,0.0,0.0,3.0
0.2041168212890625,4095,0.0,0.0,3.0
0.20998740196228027,857,0.0,0.0,3.0
0.21803665161132812,4095,0.0,0.0,3.0
0.23383498191833496,925,0.0,0.0,3.0
0.23993182182312012,4095,0.0,0.0,3.0
0.25499653816223145,939,0.0,0.0,3.0
0.2575697898864746,4095,0.0,0.0,3.0
0.2749631404876709,1072,0.0,0.0,3.0
0.2759592533111572,4095,0.0,0.0,3.0
0.28597521781921387,1123,0.0,0.0,3.0
0.2959725856781006,4095,0.0,0.0,3.0
0.3059697151184082,1095,0.0,0.0,3.0
0.31596970558166504,4095,0.0,0.0,3.0
0.3259701728820801,1117,0.0,0.0,3.0
0.3359711170196533,4095,0.0,0.0,3.0
0.34596991539001465,1087,0.0,0.0,3.0
0.3559703826904297,4095,0.0,0.0,3.0
0.3659696578979492,1153,0.0,0.0,3.0
0.37597060203552246,4095,0.0,0.0,3.0
0.385969877243042,1210,0.0,0.0,3.0
0.39597177505493164,4095,0.0,0.0,3.0
0.4142937660217285,1230,0.0,0.0,3.0
0.4241824150085449,4095,0.0,0.0,3.0
0.4342830181121826,1335,0.0,0.0,3.0
0.44013261795043945,4095,0.0,0.0,3.0
0.4545121192932129,1427,0.0,0.0,3.0
0.4563632011413574,4095,0.0,0.0,3.0
0.47473764419555664,4095,0.0,0.0,3.0
0.48477768898010254,4095,0.0,0.0,3.0
0.4947490692138672,4095,0.0,0.0,3.0
0.5047521591186523,4095,0.0,0.0,3.0
0.5152018070220947,1913,0.0,0.0,3.0
0.5161972045898438,4095,0.0,0.0,3.0
0.5262460708618164,1721,0.0,0.0,3.0
0.5362460613250732,4095,0.0,0.0,3.0
0.5462462902069092,1738,0.0,0.0,3.0
0.5562469959259033,4095,0.0,0.0,3.0
0.5662484169006348,1739,0.0,0.0,3.0
0.5762460231781006,4095,0.0,0.0,3.0
0.5945611000061035,1741,0.0,0.0,3.0
0.6045956611633301,4095,0.0,0.0,3.0
0.6145734786987305,1648,0.0,0.0,3.0
0.6273102760314941,4095,0.0,0.0,3.0
0.6341960430145264,1167,0.0,0.0,3.0
0.6447949409484863,4095,0.0,0.0,3.0
0.6543400287628174,1223,0.0,0.0,3.0
0.6628632545471191,4095,0.0,0.0,3.0
0.6745262145996094,1495,0.0,0.0,3.0
0.6825437545776367,4095,0.0,0.0,3.0
0.6928000450134277,1543,0.0,0.0,3.0
0.7045586109161377,4095,0.0,0.0,3.0
0.7081999778747559,1563,0.0,0.0,3.0
0.7244305610656738,4095,0.0,0.0,3.0
0.7309882640838623,1767,0.0,0.0,3.0
0.7431783676147461,4095,0.0,0.0,3.0
0.754828929901123,1586,0.0,0.0,3.0
0.763620138168335,4095,0.0,0.0,3.0
0.7745542526245117,1654,0.0,0.0,3.0
0.7848629951477051,4095,0.0,0.0,3.0
0.794654130935669,1567,0.0,0.0,3.0
0.8052420616149902,4095,0.0,0.0,3.0
0.8101081848144531,1788,0.0,0.0,3.0
0.8246355056762695,4095,0.0,0.0,3.0
0.8348140716552734,1998,0.0,0.0,3.0
0.8446252346038818,4095,0.0,0.0,3.0
0.8549909591674805,4095,0.0,0.0,3.0
0.8631877899169922,4095,0.0,0.0,3.0
0.8744416236877441,4095,0.0,0.0,3.0
0.8824665546417236,4095,0.0,0.0,3.0
0.8887546062469482,4095,0.0,0.0,3.0
0.9045648574829102,4095,0.0,0.0,3.0
0.9078514575958252,4095,0.0,0.0,3.0
0.9178695678710938,4095,0.0,0.0,3.0
0.9278683662414551,4095,0.0,0.0,3.0
0.938992977142334,4095,0.0,0.0,3.0
0.9490513801574707,4095,0.0,0.0,3.0
0.9590225219726562,4095,0.0,0.0,3.0
0.9701800346374512,4095,0.0,0.0,3.0
0.9802465438842773,4095,0.0,0.0,3.0
0.9925696849822998,4095,0.0,0.0,3.0
1.0025877952575684,4095,0.0,0.0,3.0
1.0147461891174316,4095,0.0,0.0,3.0
1.0231597423553467,4095,0.0,0.0,3.0
1.0331754684448242,4095,0.0,0.0,3.0
1.045006275177002,4095,0.0,0.0,3.0
1.0548090934753418,2327,0.0,0.0,3.0
1.0642755031585693,4095,0.0,0.0,3.0
1.0753982067108154,2389,0.0,0.0,3.0
1.0846660137176514,4095,0.0,0.0,3.0
1.0933444499969482,2509,0.0,0.0,3.0
1.1041436195373535,4095,0.0,0.0,3.0
1.1086807250976562,2653,0.0,0.0,3.0
1.1173038482666016,4095,0.0,0.0,3.0
1.127655029296875,2641,0.0,0.0,3.0
1.1385819911956787,4095,0.0,0.0,3.0
1.1546735763549805,2742,0.0,0.0,3.0
1.1624019145965576,4095,0.0,0.0,3.0
1.1727888584136963,2774,0.0,0.0,3.0
1.1844391822814941,4095,0.0,0.0,3.0
1.1930572986602783,2865,0.0,0.0,3.0
1.203073501586914,4095,0.0,0.0,3.0
1.2124278545379639,2881,0.0,0.0,3.0
1.2238094806671143,4095,0.0,0.0,3.0
1.232442855834961,3011,0.0,0.0,3.0
1.2395331859588623,4095,0.0,0.0,3.0
1.2553856372833252,3103,0.0,0.0,3.0
1.2632036209106445,4095,0.0,0.0,3.0
1.2748265266418457,3216,0.0,0.0,3.0
1.2841508388519287,4095,0.0,0.0,3.0
1.2945435047149658,3328,0.0,0.0,3.0
1.3041927814483643,4095,0.0,0.0,3.0
1.3150665760040283,3393,0.0,0.0,3.0
1.3244948387145996,4095,0.0,0.0,3.0
1.3329870700836182,3583,0.0,0.0,3.0
1.3414275646209717,4095,0.0,0.0,3.0
1.3548569679260254,3713,0.0,0.0,3.0
1.3619496822357178,4095,0.0,0.0,3.0
1.3748369216918945,3894,0.0,0.0,3.0
1.3840465545654297,4095,0.0,0.0,3.0
1.3935067653656006,3986,0.0,0.0,3.0
1.4048857688903809,4095,0.0,0.0,3.0
1.4149551391601562,4076,0.0,0.0,3.0
1.4241244792938232,4095,0.0,0.0,3.0
1.430992841720581,4095,0.0,0.0,3.0
1.4445545673370361,4095,0.0,0.0,3.0
1.4548451900482178,4095,0.0,0.0,3.0
1.4645464420318604,4095,0.0,0.0,3.0
1.4713850021362305,4095,0.0,0.0,3.0
1.4847686290740967,4095,0.0,0.0,3.0
1.493574619293213,4095,0.0,0.0,3.0
1.5042431354522705,4095,0.0,0.0,3.0
1.5145339965820312,4095,0.0,0.0,3.0
1.524160623550415,4095,0.0,0.0,3.0
1.5310440063476562,4095,0.0,0.0,3.0
1.5405843257904053,4095,0.0,0.0,3.0
1.554124355316162,4095,0.0,0.0,3.0
1.563497543334961,4095,0.0,0.0,3.0
1.574310302734375,4095,0.0,0.0,3.0
1.5848679542541504,4095,0.0,0.0,3.0
1.594365119934082,4095,0.0,0.0,3.0
1.6043412685394287,4095,0.0,0.0,3.0
1.614414930343628,4095,0.0,0.0,3.0
1.6240990161895752,4095,0.0,0.0,3.0
1.6305325031280518,4095,0.0,0.0,3.0
1.6443893909454346,4095,0.0,0.0,3.0
1.6542255878448486,4095,0.0,0.0,3.0
1.6631970405578613,4095,0.0,0.0,3.0
1.6742150783538818,4095,0.0,0.0,3.0
1.6852624416351318,4095,0.0,0.0,3.0
1.694347858428955,4095,0.0,0.0,3.0
1.704153060913086,4095,0.0,0.0,3.0
1.714681625366211,4095,0.0,0.0,3.0
1.7248120307922363,4095,0.0,0.0,3.0
1.7299754619598389,4095,0.0,0.0,3.0
1.7442305088043213,4095,0.0,0.0,3.0
1.754469394683838,4095,0.0,0.0,3.0
1.7620022296905518,4095,0.0,0.0,3.0
1.7743401527404785,4095,0.0,0.0,3.0
1.778088092803955,2838,0.0,0.0,3.0
1.7947969436645508,4095,0.0,0.0,3.0
1.8041844367980957,4095,0.0,0.0,3.0
1.8099956512451172,4095,0.0,0.0,3.0
1.8247921466827393,4095,0.0,0.0,3.0
1.8292300701141357,4095,0.0,0.0,3.0
1.8447518348693848,4095,0.0,0.0,3.0
1.8542017936706543,4095,0.0,0.0,3.0
1.863783597946167,4095,0.0,0.0,3.0
1.8747403621673584,4095,0.0,0.0,3.0
1.875739336013794,4095,0.0,0.0,3.0
1.8945133686065674,4095,0.0,0.0,3.0
1.904418706893921,4095,0.0,0.0,3.0
1.9146792888641357,4095,0.0,0.0,3.0
1.924213171005249,4095,0.0,0.0,3.0
1.9304993152618408,4095,0.0,0.0,3.0
1.944544792175293,4095,0.0,0.0,3.0
1.9540841579437256,4095,0.0,0.0,3.0
1.9647619724273682,4095,0.0,0.0,3.0
1.9745800495147705,4095,0.0,0.0,3.0
1.9840776920318604,4095,0.0,0.0,3.0
1.9940299987792969,4095,0.0,0.0,3.0
2.0051891803741455,4095,0.0,0.0,3.0
2.012240409851074,4095,0.0,0.0,3.0
2.023996114730835,4095,0.0,0.0,3.0
2.0306243896484375,4095,0.0,0.0,3.0
2.0446505546569824,4095,0.0,0.0,3.0
2.054164409637451,4095,0.0,0.0,3.0
2.060823917388916,4095,0.0,0.0,3.0
2.073995590209961,4095,0.0,0.0,3.0
2.0771467685699463,4095,0.0,0.0,3.0
2.0941591262817383,4095,0.0,0.0,3.0
2.105407476425171,4095,0.0,0.0,3.0
2.1142139434814453,4095,0.0,0.0,3.0
2.1239898204803467,4095,0.0,0.0,3.0
2.130544424057007,4095,0.0,0.0,3.0
2.1445648670196533,4095,0.0,0.0,3.0
2.154168128967285,4095,0.0,0.0,3.0
2.1604697704315186,4095,0.0,0.0,3.0
2.17439603805542,4095,0.0,0.0,3.0
2.177554130554199,4095,0.0,0.0,3.0
2.1940205097198486,4095,0.0,0.0,3.0
2.204141139984131,4095,0.0,0.0,3.0
2.214395523071289,4095,0.0,0.0,3.0
2.22428822517395,4095,0.0,0.0,3.0
2.2307820320129395,4095,0.0,0.0,3.0
2.243957757949829,4095,0.0,0.0,3.0
2.2541913986206055,4095,0.0,0.0,3.0
2.2636356353759766,4095,0.0,0.0,3.0
2.274998426437378,4095,0.0,0.0,3.0
2.283109426498413,4095,0.0,0.0,3.0
2.2934343814849854,4095,0.0,0.0,3.0
2.3060567378997803,4095,0.0,0.0,3.0
2.3095054626464844,4095,0.0,0.0,3.0
2.32057523727417,4095,0.0,0.0,3.0
2.3348989486694336,4095,0.0,0.0,3.0
2.3446850776672363,4095,0.0,0.0,3.0
2.3541831970214844,4095,0.0,0.0,3.0
2.3608169555664062,4095,0.0,0.0,3.0
2.3746869564056396,4095,0.0,0.0,3.0
2.3766801357269287,4095,0.0,0.0,3.0
2.393986463546753,4095,0.0,0.0,3.0
2.404343605041504,4095,0.0,0.0,3.0
2.4149773120880127,4095,0.0,0.0,3.0
2.4213063716888428,4095,0.0,0.0,3.0
2.4299278259277344,4095,0.0,0.0,3.0
2.4447567462921143,4095,0.0,0.0,3.0
2.4549314975738525,4095,0.0,0.0,3.0
2.45847487449646,4095,0.0,0.0,3.0
2.4748799800872803,4095,0.0,0.0,3.0
2.482886552810669,4095,0.0,0.0,3.0
2.48822283744812,4095,0.0,0.0,3.0
2.504887104034424,4095,0.0,0.0,3.0
2.5141263008117676,4095,0.0,0.0,3.0
2.522451400756836,4095,0.0,0.0,3.0
2.5346198081970215,4095,0.0,0.0,3.0
2.5439062118530273,4095,0.0,0.0,3.0
2.5540671348571777,4095,0.0,0.0,3.0
2.5606327056884766,4095,0.0,0.0,3.0
2.574251651763916,4095,0.0,0.0,3.0
2.584484100341797,4095,0.0,0.0,3.0
2.5932724475860596,4095,0.0,0.0,3.0
2.605123996734619,4095,0.0,0.0,3.0
2.6131653785705566,4095,0.0,0.0,3.0
2.62453556060791,4095,0.0,0.0,3.0
2.63492751121521,4095,0.0,0.0,3.0
2.64357852935791,4095,0.0,0.0,3.0
2.6546943187713623,4095,0.0,0.0,3.0
2.6580452919006348,4095,0.0,0.0,3.0
2.673468828201294,4095,0.0,0.0,3.0
2.681475877761841,4095,0.0,0.0,3.0
2.688232183456421,4095,0.0,0.0,3.0
2.7048439979553223,4095,0.0,0.0,3.0
2.714042901992798,4095,0.0,0.0,3.0
2.7235474586486816,4095,0.0,0.0,3.0
2.732779026031494,4095,0.0,0.0,3.0
2.738764524459839,4095,0.0,0.0,3.0
2.754796266555786,4095,0.0,0.0,3.0
2.7646427154541016,4095,0.0,0.0,3.0
2.7745249271392822,4095,0.0,0.0,3.0
2.780846118927002,4095,0.0,0.0,3.0
2.7944939136505127,4095,0.0,0.0,3.0
2.8049769401550293,4095,0.0,0.0,3.0
2.8141167163848877,4095,0.0,0.0,3.0
2.8243978023529053,4095,0.0,0.0,3.0
2.82761812210083,4095,0.0,0.0,3.0
2.8446121215820312,4095,0.0,0.0,3.0
2.855031967163086,4095,0.0,0.0,3.0
2.8644323348999023,4095,0.0,0.0,3.0
2.8730080127716064,4095,0.0,0.0,3.0
2.8810150623321533,4095,0.0,0.0,3.0
2.8882482051849365,4095,0.0,0.0,3.0
2.9049932956695557,4095,0.0,0.0,3.0
2.911344528198242,4095,0.0,0.0,3.0
2.9215621948242188,4095,0.0,0.0,3.0
2.928359031677246,4095,0.0,0.0,3.0
2.9433717727661133,4095,0.0,0.0,3.0
2.9543263912200928,4095,0.0,0.0,3.0
2.9595558643341064,4095,0.0,0.0,3.0
2.974191427230835,4095,0.0,0.0,3.0
2.9848930835723877,4095,0.0,0.0,3.0
2.994555950164795,4095,0.0,0.0,3.0
3.004215955734253,4095,0.0,0.0,3.0
3.0144710540771484,4095,0.0,0.0,3.0
3.0243566036224365,4095,0.0,0.0,3.0
3.034268379211426,4095,0.0,0.0,3.0
3.04412841796875,4095,0.0,0.0,3.0
3.0543434619903564,4095,0.0,0.0,3.0
3.0574326515197754,4095,0.0,0.0,3.0
3.0730862617492676,4095,0.0,0.0,3.0
3.0811047554016113,4095,0.0,0.0,3.0
3.0945959091186523,4095,0.0,0.0,3.0
3.1044347286224365,4095,0.0,0.0,3.0
3.1132729053497314,4095,0.0,0.0,3.0
3.1249425411224365,4095,0.0,0.0,3.0
3.1329495906829834,4095,0.0,0.0,3.0
3.1407065391540527,4095,0.0,0.0,3.0
3.1544790267944336,4095,0.0,0.0,3.0
3.157413959503174,4095,0.0,0.0,3.0
3.171891927719116,4095,0.0,0.0,3.0
3.1824393272399902,4095,0.0,0.0,3.0
3.1947455406188965,4095,0.0,0.0,3.0
3.2042338848114014,4095,0.0,0.0,3.0
3.2140817642211914,4095,0.0,0.0,3.0
3.2217304706573486,4095,0.0,0.0,3.0
3.2299258708953857,4095,0.0,0.0,3.0
3.2446556091308594,4095,0.0,0.0,3.0
3.254801034927368,4095,0.0,0.0,3.0
3.2648510932922363,4095,0.0,0.0,3.0
3.274799346923828,4095,0.0,0.0,3.0
3.2812161445617676,4095,0.0,0.0,3.0
3.295289993286133,4095,0.0,0.0,3.0
3.304415225982666,4095,0.0,0.0,3.0
3.3126256465911865,4095,0.0,0.0,3.0
3.3244051933288574,4095,0.0,0.0,3.0
3.3349649906158447,4095,0.0,0.0,3.0
3.3432748317718506,4095,0.0,0.0,3.0
3.3544418811798096,4095,0.0,0.0,3.0
3.3644397258758545,4095,0.0,0.0,3.0
3.3745388984680176,4095,0.0,0.0,3.0
3.383538246154785,4095,0.0,0.0,3.0
3.394012689590454,4095,0.0,0.0,3.0
3.4045772552490234,4095,0.0,0.0,3.0
3.4100327491760254,4095,0.0,0.0,3.0
3.433884620666504,4095,0.0,0.0,3.0
3.433884620666504,4095,0.0,0.0,3.0
3.4398112297058105,4095,0.0,0.0,3.0
3.454637289047241,4095,0.0,0.0,3.0
3.4646358489990234,4095,0.0,0.0,3.0
3.47304630279541,4095,0.0,0.0,3.0
3.4822707176208496,4095,0.0,0.0,3.0
3.490427017211914,4095,0.0,0.0,3.0
3.5044305324554443,4095,0.0,0.0,3.0
3.5134379863739014,4095,0.0,0.0,3.0
3.5246570110321045,4095,0.0,0.0,3.0
3.5334928035736084,4095,0.0,0.0,3.0
3.541041851043701,4095,0.0,0.0,3.0
3.554389476776123,4095,0.0,0.0,3.0
3.5642614364624023,4095,0.0,0.0,3.0
3.5723345279693604,4095,0.0,0.0,3.0
3.5803565979003906,4095,0.0,0.0,3.0
3.594391345977783,4095,0.0,0.0,3.0
3.605111837387085,4095,0.0,0.0,3.0
3.6114070415496826,4095,0.0,0.0,3.0
3.624634265899658,4095,0.0,0.0,3.0
3.6340365409851074,4095,0.0,0.0,3.0
3.641220808029175,4095,0.0,0.0,3.0
3.6544535160064697,4095,0.0,0.0,3.0
3.664276361465454,4095,0.0,0.0,3.0
3.6749000549316406,4095,0.0,0.0,3.0
3.68148136138916,4095,0.0,0.0,3.0
3.694777011871338,4095,0.0,0.0,3.0
3.7046115398406982,4095,0.0,0.0,3.0
3.71122407913208,4095,0.0,0.0,3.0
3.7248780727386475,4095,0.0,0.0,3.0
3.734222650527954,4095,0.0,0.0,3.0
3.741908550262451,4095,0.0,0.0,3.0
3.754633665084839,4095,0.0,0.0,3.0
3.764237642288208,4095,0.0,0.0,3.0
3.7749404907226562,4095,0.0,0.0,3.0
3.780402421951294,4095,0.0,0.0,3.0
3.7947499752044678,4095,0.0,0.0,3.0
3.8045077323913574,4095,0.0,0.0,3.0
3.8137471675872803,4095,0.0,0.0,3.0
3.824394464492798,4095,0.0,0.0,3.0
3.834613561630249,4095,0.0,0.0,3.0
3.844961404800415,4095,0.0,0.0,3.0
3.8549551963806152,4095,0.0,0.0,3.0
3.8593719005584717,4095,0.0,0.0,3.0
3.8713467121124268,4095,0.0,0.0,3.0
3.884946584701538,4095,0.0,0.0,3.0
3.89495849609375,4095,0.0,0.0,3.0
3.9049525260925293,4095,0.0,0.0,3.0
3.9049525260925293,4095,0.0,0.0,3.0
3.91702938079834,4095,0.0,0.0,3.0
3.932521343231201,4095,0.0,0.0,3.0
3.9425344467163086,4095,0.0,0.0,3.0
3.9525349140167236,4095,0.0,0.0,3.0
3.9645586013793945,4095,0.0,0.0,3.0
3.9745771884918213,4095,0.0,0.0,3.0
3.9845898151397705,4095,0.0,0.0,3.0
3.986158609390259,4095,0.0,0.0,3.0
3.996210813522339,4095,0.0,0.0,3.0
4.006211042404175,4095,0.0,0.0,3.0
4.024823427200317,1711,0.0,0.0,3.0
4.034641265869141,4095,0.0,0.0,3.0
4.044212341308594,314,0.0,0.0,3.0
4.054664134979248,4095,0.0,0.0,3.0
4.063284397125244,399,0.0,0.0,3.0
4.072041273117065,4095,0.0,0.0,3.0
4.079731464385986,415,0.0,0.0,3.0
4.087964296340942,4095,0.0,0.0,3.0
4.102848291397095,465,0.0,0.0,3.0
4.10873007774353,4095,0.0,0.0,3.0
4.124774694442749,621,0.0,0.0,3.0
4.133397817611694,4095,0.0,0.0,3.0
4.1413140296936035,828,0.0,0.0,3.0
4.15517258644104,4095,0.0,0.0,3.0
4.164146423339844,962,0.0,0.0,3.0
4.174567222595215,4095,0.0,0.0,3.0
4.1798741817474365,4095,0.0,0.0,3.0
4.194457769393921,4095,0.0,0.0,3.0
4.204618692398071,4095,0.0,0.0,3.0
4.207510471343994,4095,0.0,0.0,3.0
4.224553346633911,4095,0.0,0.0,3.0
4.234440565109253,4095,0.0,0.0,3.0
4.244558811187744,4095,0.0,0.0,3.0
4.254806756973267,4095,0.0,0.0,3.0
4.264605522155762,4095,0.0,0.0,3.0
4.274664640426636,4095,0.0,0.0,3.0
4.284801721572876,2548,0.0,0.0,3.0
4.290369272232056,4095,0.0,0.0,3.0
4.301441431045532,2544,0.0,0.0,3.0
4.311449766159058,4095,0.0,0.0,3.0
4.324032545089722,2595,0.0,0.0,3.0
4.334202527999878,4095,0.0,0.0,3.0
4.340186595916748,2193,0.0,0.0,3.0
4.350204229354858,4095,0.0,0.0,3.0
4.363294839859009,530,0.0,0.0,3.0
4.374737739562988,4095,0.0,0.0,3.0
4.378701686859131,767,0.0,0.0,3.0
4.38644552230835,4095,0.0,0.0,3.0
4.401730060577393,576,0.0,0.0,3.0
4.4145989418029785,4095,0.0,0.0,3.0
4.424543619155884,610,0.0,0.0,3.0
4.433343172073364,4095,0.0,0.0,3.0
4.44398307800293,665,0.0,0.0,3.0
4.45500922203064,4095,0.0,0.0,3.0
4.464694023132324,2880,0.0,0.0,3.0
4.474320650100708,4095,0.0,0.0,3.0
4.481521368026733,3248,0.0,0.0,3.0
4.492692232131958,4095,0.0,0.0,3.0
4.504827499389648,3550,0.0,0.0,3.0
4.512917518615723,4095,0.0,0.0,3.0
4.524765491485596,3549,0.0,0.0,3.0
4.53095269203186,4095,0.0,0.0,3.0
4.544073581695557,3867,0.0,0.0,3.0
4.554137468338013,4095,0.0,0.0,3.0
4.563599586486816,3809,0.0,0.0,3.0
4.574264287948608,4095,0.0,0.0,3.0
4.579127311706543,3892,0.0,0.0,3.0
4.594324111938477,4095,0.0,0.0,3.0
4.603939056396484,3792,0.0,0.0,3.0
4.614416837692261,4095,0.0,0.0,3.0
4.624628305435181,3693,0.0,0.0,3.0
4.629643440246582,4095,0.0,0.0,3.0
4.644915342330933,3779,0.0,0.0,3.0
4.6548075675964355,4095,0.0,0.0,3.0
4.662247896194458,4095,0.0,0.0,3.0
4.674587965011597,4095,0.0,0.0,3.0
4.684952974319458,974,0.0,0.0,3.0
4.694762706756592,4095,0.0,0.0,3.0
4.704772472381592,941,0.0,0.0,3.0
4.7103612422943115,4095,0.0,0.0,3.0
4.724382400512695,1097,0.0,0.0,3.0
4.731970548629761,4095,0.0,0.0,3.0
4.742737770080566,1136,0.0,0.0,3.0
4.754084587097168,4095,0.0,0.0,3.0
4.764572381973267,1107,0.0,0.0,3.0
4.7745561599731445,4095,0.0,0.0,3.0
4.784555912017822,1121,0.0,0.0,3.0
4.79355263710022,4095,0.0,0.0,3.0
4.804708480834961,4095,0.0,0.0,3.0
4.814801931381226,4095,0.0,0.0,3.0
4.8244593143463135,4095,0.0,0.0,3.0
4.828861713409424,4095,0.0,0.0,3.0
4.844786167144775,4095,0.0,0.0,3.0
4.854733467102051,4095,0.0,0.0,3.0
4.862820863723755,1423,0.0,0.0,3.0
4.87412428855896,4095,0.0,0.0,3.0
4.8805742263793945,1510,0.0,0.0,3.0
4.894454479217529,4095,0.0,0.0,3.0
4.903891563415527,4095,0.0,0.0,3.0
4.913907766342163,4095,0.0,0.0,3.0
4.924271583557129,4095,0.0,0.0,3.0
4.926264524459839,4095,0.0,0.0,3.0
4.944561958312988,4095,0.0,0.0,3.0
4.954730749130249,4095,0.0,0.0,3.0
4.960555791854858,4095,0.0,0.0,3.0
4.974207639694214,4095,0.0,0.0,3.0
4.978195905685425,4095,0.0,0.0,3.0
4.994901180267334,4095,0.0,0.0,3.0
5.003777503967285,3488,0.0,0.0,3.0
5.014827251434326,4095,0.0,0.0,3.0
5.024444580078125,4095,0.0,0.0,3.0
5.028973340988159,4095,0.0,0.0,3.0
5.044390678405762,1837,0.0,0.0,3.0
5.054087400436401,4095,0.0,0.0,3.0
5.061455249786377,2128,0.0,0.0,3.0
5.074927091598511,4095,0.0,0.0,3.0
5.077429294586182,2064,0.0,0.0,3.0
5.09468150138855,4095,0.0,0.0,3.0
5.10480260848999,1983,0.0,0.0,3.0
5.1148316860198975,4095,0.0,0.0,3.0
5.124722003936768,1918,0.0,0.0,3.0
5.131148815155029,4095,0.0,0.0,3.0
5.144050598144531,4095,0.0,0.0,3.0
5.154719829559326,4095,0.0,0.0,3.0
5.164202928543091,4095,0.0,0.0,3.0
5.174747943878174,4095,0.0,0.0,3.0
5.18437647819519,4095,0.0,0.0,3.0
5.194828271865845,4095,0.0,0.0,3.0
5.204285144805908,4095,0.0,0.0,3.0
5.214755296707153,4095,0.0,0.0,3.0
5.223774194717407,4095,0.0,0.0,3.0
5.229435443878174,4095,0.0,0.0,3.0
5.244828462600708,4095,0.0,0.0,3.0
5.254810810089111,4095,0.0,0.0,3.0
5.261353015899658,4095,0.0,0.0,3.0
5.274369955062866,4095,0.0,0.0,3.0
5.282221794128418,4095,0.0,0.0,3.0
5.294108152389526,4095,0.0,0.0,3.0
5.303384304046631,4095,0.0,0.0,3.0
5.314229249954224,4095,0.0,0.0,3.0
5.3225417137146,4095,0.0,0.0,3.0
5.334989786148071,4095,0.0,0.0,3.0
5.344945907592773,4095,0.0,0.0,3.0
5.3537445068359375,4095,0.0,0.0,3.0
5.360634088516235,4095,0.0,0.0,3.0
5.37415337562561,4095,0.0,0.0,3.0
5.381996393203735,4095,0.0,0.0,3.0
5.3945841789245605,4095,0.0,0.0,3.0
5.405913591384888,4095,0.0,0.0,3.0
5.414230585098267,4095,0.0,0.0,3.0
5.424270153045654,4095,0.0,0.0,3.0
5.431149959564209,4095,0.0,0.0,3.0
5.444615840911865,4095,0.0,0.0,3.0
5.454208135604858,4095,0.0,0.0,3.0
5.462006330490112,4095,0.0,0.0,3.0
5.4745166301727295,4095,0.0,0.0,3.0
5.483642101287842,4095,0.0,0.0,3.0
5.49461817741394,4095,0.0,0.0,3.0
5.504920959472656,4095,0.0,0.0,3.0
5.514808893203735,4095,0.0,0.0,3.0
5.52307915687561,4095,0.0,0.0,3.0
5.534607172012329,4095,0.0,0.0,3.0
5.544551610946655,4095,0.0,0.0,3.0
5.554022550582886,4095,0.0,0.0,3.0
5.56439733505249,4095,0.0,0.0,3.0
5.570837020874023,4095,0.0,0.0,3.0
5.5797483921051025,4095,0.0,0.0,3.0
5.59057092666626,4095,0.0,0.0,3.0
5.604244947433472,4095,0.0,0.0,3.0
5.614460468292236,4095,0.0,0.0,3.0
5.624376058578491,4095,0.0,0.0,3.0
5.628616809844971,4095,0.0,0.0,3.0
5.638144254684448,4095,0.0,0.0,3.0
5.654380798339844,4095,0.0,0.0,3.0
5.664132833480835,4095,0.0,0.0,3.0
5.671578645706177,4095,0.0,0.0,3.0
5.679610729217529,4095,0.0,0.0,3.0
5.690198183059692,4095,0.0,0.0,3.0
5.704706430435181,4095,0.0,0.0,3.0
5.712743043899536,4095,0.0,0.0,3.0
5.724715948104858,4095,0.0,0.0,3.0
5.727360486984253,4095,0.0,0.0,3.0
5.738845109939575,4095,0.0,0.0,3.0
5.755114555358887,4095,0.0,0.0,3.0
5.759225845336914,4095,0.0,0.0,3.0
5.7743895053863525,4095,0.0,0.0,3.0
5.782535552978516,4095,0.0,0.0,3.0
5.79080057144165,4095,0.0,0.0,3.0
5.804749488830566,4095,0.0,0.0,3.0
5.813972234725952,4095,0.0,0.0,3.0
5.823818922042847,4095,0.0,0.0,3.0
5.830725431442261,4095,0.0,0.0,3.0
5.844868898391724,4095,0.0,0.0,3.0
5.854339599609375,4095,0.0,0.0,3.0
5.860037803649902,4095,0.0,0.0,3.0
5.874376535415649,4095,0.0,0.0,3.0
5.883504390716553,4095,0.0,0.0,3.0
5.8911004066467285,4095,0.0,0.0,3.0
5.904571294784546,4095,0.0,0.0,3.0
5.914656639099121,4095,0.0,0.0,3.0
5.921392440795898,4095,0.0,0.0,3.0
5.934851408004761,4095,0.0,0.0,3.0
5.9442970752716064,4095,0.0,0.0,3.0
5.954689979553223,4095,0.0,0.0,3.0
5.958595275878906,4095,0.0,0.0,3.0
5.97418212890625,3321,0.0,0.0,3.0
5.983251094818115,4095,0.0,0.0,3.0
5.989366769790649,2971,0.0,0.0,3.0
6.0047972202301025,4095,0.0,0.0,3.0
6.012800931930542,4095,0.0,0.0,3.0
6.021361589431763,4095,0.0,0.0,3.0
6.029426336288452,4095,0.0,0.0,3.0
6.039127588272095,4095,0.0,0.0,3.0
6.054227828979492,4095,0.0,0.0,3.0
6.063229560852051,4095,0.0,0.0,3.0
6.074134826660156,4095,0.0,0.0,3.0
6.083186149597168,4095,0.0,0.0,3.0
6.089202165603638,4095,0.0,0.0,3.0
6.104119777679443,4095,0.0,0.0,3.0
6.113428592681885,4095,0.0,0.0,3.0
6.121339559555054,4095,0.0,0.0,3.0
6.129406929016113,4095,0.0,0.0,3.0
6.13823938369751,4095,0.0,0.0,3.0
6.154284715652466,4095,0.0,0.0,3.0
6.164035320281982,4095,0.0,0.0,3.0
6.174797534942627,4095,0.0,0.0,3.0
6.183604717254639,4095,0.0,0.0,3.0
6.190231800079346,4095,0.0,0.0,3.0
6.204652786254883,4095,0.0,0.0,3.0
6.214176416397095,4095,0.0,0.0,3.0
6.224968671798706,4095,0.0,0.0,3.0
6.235272169113159,4095,0.0,0.0,3.0
6.243729114532471,4095,0.0,0.0,3.0
6.254792928695679,4095,0.0,0.0,3.0
6.265282154083252,4095,0.0,0.0,3.0
6.273574352264404,4095,0.0,0.0,3.0
6.281583309173584,4095,0.0,0.0,3.0
6.288184642791748,4095,0.0,0.0,3.0
6.30485725402832,4095,0.0,0.0,3.0
6.31404185295105,4095,0.0,0.0,3.0
6.321589231491089,4095,0.0,0.0,3.0
6.334526062011719,4095,0.0,0.0,3.0
6.338793754577637,4095,0.0,0.0,3.0
6.354717254638672,4095,0.0,0.0,3.0
6.364396572113037,4095,0.0,0.0,3.0
6.374176740646362,4095,0.0,0.0,3.0
6.38458776473999,4095,0.0,0.0,3.0
6.387950658798218,4095,0.0,0.0,3.0
6.4043967723846436,4095,0.0,0.0,3.0
6.414526462554932,4095,0.0,0.0,3.0
6.420487403869629,4095,0.0,0.0,3.0
6.429272890090942,4095,0.0,0.0,3.0
6.4380528926849365,4095,0.0,0.0,3.0
6.454816579818726,4095,0.0,0.0,3.0
6.456851959228516,4095,0.0,0.0,3.0
6.472861289978027,4095,0.0,0.0,3.0
6.480913162231445,4095,0.0,0.0,3.0
6.495065212249756,4095,0.0,0.0,3.0
6.504718542098999,4095,0.0,0.0,3.0
6.512723445892334,4095,0.0,0.0,3.0
6.523924112319946,4095,0.0,0.0,3.0
6.531931400299072,4095,0.0,0.0,3.0
6.54200553894043,4095,0.0,0.0,3.0
6.554654836654663,4095,0.0,0.0,3.0
6.557624816894531,4095,0.0,0.0,3.0
6.572279930114746,4095,0.0,0.0,3.0
6.584561824798584,4095,0.0,0.0,3.0
6.592284679412842,4095,0.0,0.0,3.0
6.6046741008758545,4095,0.0,0.0,3.0
6.613731861114502,4095,0.0,0.0,3.0
6.621655464172363,4095,0.0,0.0,3.0
6.6346940994262695,4095,0.0,0.0,3.0
6.643015146255493,4095,0.0,0.0,3.0
6.654778957366943,4095,0.0,0.0,3.0
6.6651835441589355,4095,0.0,0.0,3.0
6.6734514236450195,4095,0.0,0.0,3.0
6.681852102279663,4095,0.0,0.0,3.0
6.6948089599609375,4095,0.0,0.0,3.0
6.7048890590667725,4095,0.0,0.0,3.0
6.713882923126221,4095,0.0,0.0,3.0
6.721968173980713,4095,0.0,0.0,3.0
6.73494553565979,4095,0.0,0.0,3.0
6.741807699203491,4095,0.0,0.0,3.0
6.75459098815918,4095,0.0,0.0,3.0
6.764976501464844,4095,0.0,0.0,3.0
6.772830247879028,4095,0.0,0.0,3.0
6.785104274749756,4095,0.0,0.0,3.0
6.7937610149383545,4095,0.0,0.0,3.0
6.804822206497192,4095,0.0,0.0,3.0
6.81487512588501,4095,0.0,0.0,3.0
6.822626829147339,4095,0.0,0.0,3.0
6.8327109813690186,4095,0.0,0.0,3.0
6.837345838546753,4095,0.0,0.0,3.0
6.854871034622192,4095,0.0,0.0,3.0
6.8648905754089355,4095,0.0,0.0,3.0
6.872645378112793,4095,0.0,0.0,3.0
6.880666494369507,4095,0.0,0.0,3.0
6.88929009437561,4095,0.0,0.0,3.0
6.904318332672119,4095,0.0,0.0,3.0
6.913346290588379,4095,0.0,0.0,3.0
6.925085067749023,4095,0.0,0.0,3.0
6.9339916706085205,4095,0.0,0.0,3.0
6.941176891326904,4095,0.0,0.0,3.0
6.954442739486694,4095,0.0,0.0,3.0
6.956050872802734,4095,0.0,0.0,3.0
6.972451210021973,4095,0.0,0.0,3.0
6.980737209320068,4095,0.0,0.0,3.0
6.9958295822143555,4095,0.0,0.0,3.0
7.00417685508728,4095,0.0,0.0,3.0
7.014559984207153,4095,0.0,0.0,3.0
7.022187948226929,4095,0.0,0.0,3.0
7.033884525299072,4095,0.0,0.0,3.0
7.0448150634765625,4095,0.0,0.0,3.0
7.054468393325806,4095,0.0,0.0,3.0
7.064708232879639,4095,0.0,0.0,3.0
7.072244644165039,4095,0.0,0.0,3.0
7.0848305225372314,4095,0.0,0.0,3.0
7.094378232955933,4095,0.0,0.0,3.0
7.104585409164429,4095,0.0,0.0,3.0
7.111539125442505,4095,0.0,0.0,3.0
7.124907970428467,4095,0.0,0.0,3.0
7.134783506393433,4095,0.0,0.0,3.0
7.142210483551025,4095,0.0,0.0,3.0
7.154340744018555,4095,0.0,0.0,3.0
7.1643900871276855,4095,0.0,0.0,3.0
7.174697160720825,4095,0.0,0.0,3.0
7.184117078781128,4095,0.0,0.0,3.0
7.194361925125122,4095,0.0,0.0,3.0
7.2043280601501465,4095,0.0,0.0,3.0
7.214858531951904,4095,0.0,0.0,3.0
7.224309921264648,4095,0.0,0.0,3.0
7.234949827194214,4095,0.0,0.0,3.0
7.2406251430511475,4095,0.0,0.0,3.0
7.2544872760772705,4095,0.0,0.0,3.0
7.26417875289917,4095,0.0,0.0,3.0
7.274460792541504,4095,0.0,0.0,3.0
7.281280517578125,4095,0.0,0.0,3.0
7.291295051574707,4095,0.0,0.0,3.0
7.304877281188965,4095,0.0,0.0,3.0
7.314891815185547,4095,0.0,0.0,3.0
7.318503141403198,4095,0.0,0.0,3.0
7.3338236808776855,4095,0.0,0.0,3.0
7.344921588897705,4095,0.0,0.0,3.0
7.349375486373901,4095,0.0,0.0,3.0
7.363752126693726,4095,0.0,0.0,3.0
7.372138738632202,4095,0.0,0.0,3.0
7.384887218475342,4095,0.0,0.0,3.0
7.394402265548706,4095,0.0,0.0,3.0
7.404563665390015,4095,0.0,0.0,3.0
7.414160966873169,4095,0.0,0.0,3.0
7.422078371047974,4095,0.0,0.0,3.0
7.431134939193726,4095,0.0,0.0,3.0
7.441582918167114,4095,0.0,0.0,3.0
7.452926397323608,4095,0.0,0.0,3.0
7.463745832443237,4095,0.0,0.0,3.0
7.473662376403809,4095,0.0,0.0,3.0
7.47843074798584,4095,0.0,0.0,3.0
7.493926763534546,4095,0.0,0.0,3.0
7.504725933074951,4095,0.0,0.0,3.0
7.5101399421691895,4095,0.0,0.0,3.0
7.523998737335205,4095,0.0,0.0,3.0
7.534887790679932,4095,0.0,0.0,3.0
7.5429394245147705,4095,0.0,0.0,3.0
7.553974390029907,4095,0.0,0.0,3.0
7.564114570617676,4095,0.0,0.0,3.0
7.573969602584839,4095,0.0,0.0,3.0
7.5850090980529785,4095,0.0,0.0,3.0
7.594094753265381,4095,0.0,0.0,3.0
7.603932619094849,4095,0.0,0.0,3.0
7.609408378601074,4095,0.0,0.0,3.0
7.624109506607056,4095,0.0,0.0,3.0
7.634913682937622,4095,0.0,0.0,3.0
7.644349813461304,4095,0.0,0.0,3.0
7.654179573059082,4095,0.0,0.0,3.0
7.662850379943848,4095,0.0,0.0,3.0
7.6738386154174805,4095,0.0,0.0,3.0
7.684852361679077,4095,0.0,0.0,3.0
7.694533348083496,4095,0.0,0.0,3.0
7.703988790512085,4095,0.0,0.0,3.0
7.7091827392578125,4095,0.0,0.0,3.0
7.724233865737915,4095,0.0,0.0,3.0
7.734081745147705,4095,0.0,0.0,3.0
7.743885517120361,4095,0.0,0.0,3.0
7.754392147064209,4095,0.0,0.0,3.0
7.763671159744263,4095,0.0,0.0,3.0
7.774092435836792,4095,0.0,0.0,3.0
7.785087823867798,4095,0.0,0.0,3.0
7.793869733810425,4095,0.0,0.0,3.0
7.804353475570679,4095,0.0,0.0,3.0
7.8091864585876465,4095,0.0,0.0,3.0
7.823928594589233,4095,0.0,0.0,3.0
7.834164619445801,4095,0.0,0.0,3.0
7.844317436218262,4095,0.0,0.0,3.0
7.854288578033447,4095,0.0,0.0,3.0
7.864859580993652,4095,0.0,0.0,3.0
7.8740479946136475,4095,0.0,0.0,3.0
7.880984306335449,4095,0.0,0.0,3.0
7.894529581069946,4095,0.0,0.0,3.0
7.904344081878662,4095,0.0,0.0,3.0
7.915065050125122,4095,0.0,0.0,3.0
7.9244544506073,4095,0.0,0.0,3.0
7.925456762313843,4095,0.0,0.0,3.0
7.943790674209595,4095,0.0,0.0,3.0
7.954422235488892,4095,0.0,0.0,3.0
7.964838027954102,4095,0.0,0.0,3.0
7.9741082191467285,4095,0.0,0.0,3.0
7.977098703384399,4095,0.0,0.0,3.0
7.9932427406311035,4095,0.0,0.0,3.0
8.004231929779053,4095,0.0,0.0,3.0
8.010587215423584,4095,0.0,0.0,3.0
8.023644924163818,4095,0.0,0.0,3.0
8.026676416397095,4095,0.0,0.0,3.0
8.044056177139282,4095,0.0,0.0,3.0
8.053856372833252,4095,0.0,0.0,3.0
8.064889907836914,4095,0.0,0.0,3.0
8.074072360992432,4095,0.0,0.0,3.0
8.084852695465088,4095,0.0,0.0,3.0
8.093926906585693,4095,0.0,0.0,3.0
8.104167222976685,4095,0.0,0.0,3.0
8.11513090133667,4095,0.0,0.0,3.0
8.124286413192749,4095,0.0,0.0,3.0
8.134901285171509,4095,0.0,0.0,3.0
8.138590097427368,4095,0.0,0.0,3.0
8.154463052749634,4095,0.0,0.0,3.0
8.164844036102295,4095,0.0,0.0,3.0
8.174428939819336,4095,0.0,0.0,3.0
8.1839599609375,4095,0.0,0.0,3.0
8.19485068321228,4095,0.0,0.0,3.0
8.203865051269531,4095,0.0,0.0,3.0
8.213906288146973,4095,0.0,0.0,3.0
8.224094867706299,4095,0.0,0.0,3.0
8.226091146469116,4095,0.0,0.0,3.0
8.24389123916626,4095,0.0,0.0,3.0
8.255031108856201,4095,0.0,0.0,3.0
8.262137174606323,4095,0.0,0.0,3.0
8.274241209030151,4095,0.0,0.0,3.0
8.279645442962646,4095,0.0,0.0,3.0
8.294222116470337,4095,0.0,0.0,3.0
8.304107904434204,4095,0.0,0.0,3.0
8.313868045806885,4095,0.0,0.0,3.0
8.323738098144531,4095,0.0,0.0,3.0
8.334924697875977,1111,0.0,0.0,3.0
8.342501878738403,4095,0.0,0.0,3.0
8.354326009750366,242,0.0,0.0,3.0
8.363901615142822,4095,0.0,0.0,3.0
8.37363886833191,232,0.0,0.0,3.0
8.38462519645691,4095,0.0,0.0,3.0
8.394312143325806,209,0.0,0.0,3.0
8.404345750808716,4095,0.0,0.0,3.0
8.414901733398438,262,0.0,0.0,3.0
8.424363851547241,4095,0.0,0.0,3.0
8.43479585647583,486,0.0,0.0,3.0
8.445137739181519,4095,0.0,0.0,3.0
8.453833103179932,1393,0.0,0.0,3.0
8.46447229385376,4095,0.0,0.0,3.0
8.474216938018799,1550,0.0,0.0,3.0
8.484845638275146,4095,0.0,0.0,3.0
8.4937903881073,1535,0.0,0.0,3.0
8.504082679748535,4095,0.0,0.0,3.0
8.514946699142456,1712,0.0,0.0,3.0
8.524388790130615,4095,0.0,0.0,3.0
8.534916877746582,1776,0.0,0.0,3.0
8.544890880584717,4095,0.0,0.0,3.0
8.554594993591309,1618,0.0,0.0,3.0
8.564899206161499,4095,0.0,0.0,3.0
8.571107625961304,1680,0.0,0.0,3.0
8.58480167388916,4095,0.0,0.0,3.0
8.587515354156494,1625,0.0,0.0,3.0
8.603790760040283,4095,0.0,0.0,3.0
8.614951372146606,1710,0.0,0.0,3.0
8.621337890625,4095,0.0,0.0,3.0
8.633741855621338,1630,0.0,0.0,3.0
8.637075185775757,4095,0.0,0.0,3.0
8.654489755630493,397,0.0,0.0,3.0
8.663479804992676,4095,0.0,0.0,3.0
8.673787832260132,449,0.0,0.0,3.0
8.683761835098267,4095,0.0,0.0,3.0
8.693694829940796,495,0.0,0.0,3.0
8.704439163208008,4095,0.0,0.0,3.0
8.712938785552979,473,0.0,0.0,3.0
8.724745988845825,4095,0.0,0.0,3.0
8.73489761352539,528,0.0,0.0,3.0
8.74377727508545,4095,0.0,0.0,3.0
8.754135847091675,2096,0.0,0.0,3.0
8.761812448501587,4095,0.0,0.0,3.0
8.774587631225586,2606,0.0,0.0,3.0
8.784994840621948,4095,0.0,0.0,3.0
8.791022539138794,1318,0.0,0.0,3.0
8.804480791091919,4095,0.0,0.0,3.0
8.814932107925415,1952,0.0,0.0,3.0
8.821007013320923,4095,0.0,0.0,3.0
8.833846092224121,2162,0.0,0.0,3.0
8.844813823699951,4095,0.0,0.0,3.0
8.854557991027832,2141,0.0,0.0,3.0
8.863817691802979,4095,0.0,0.0,3.0
8.870823860168457,2176,0.0,0.0,3.0
8.884894847869873,4095,0.0,0.0,3.0
8.894752264022827,2237,0.0,0.0,3.0
8.904119968414307,4095,0.0,0.0,3.0
8.914675951004028,900,0.0,0.0,3.0
8.924341917037964,4095,0.0,0.0,3.0
8.929682970046997,860,0.0,0.0,3.0
8.944636821746826,4095,0.0,0.0,3.0
8.954079389572144,813,0.0,0.0,3.0
8.961042165756226,4095,0.0,0.0,3.0
8.97407579421997,900,0.0,0.0,3.0
8.98404312133789,4095,0.0,0.0,3.0
8.994926929473877,815,0.0,0.0,3.0
9.0040283203125,4095,0.0,0.0,3.0
9.015006065368652,830,0.0,0.0,3.0
9.024019956588745,4095,0.0,0.0,3.0
9.03103494644165,1278,0.0,0.0,3.0
9.044208288192749,4095,0.0,0.0,3.0
9.054896354675293,2653,0.0,0.0,3.0
9.064999341964722,4095,0.0,0.0,3.0
9.073919296264648,2651,0.0,0.0,3.0
9.083958864212036,4095,0.0,0.0,3.0
9.087456703186035,2791,0.0,0.0,3.0
9.104411363601685,4095,0.0,0.0,3.0
9.114514589309692,3120,0.0,0.0,3.0
9.12474775314331,4095,0.0,0.0,3.0
9.134989023208618,3013,0.0,0.0,3.0
9.144889116287231,4095,0.0,0.0,3.0
9.154778957366943,3071,0.0,0.0,3.0
9.163937330245972,4095,0.0,0.0,3.0
9.173932790756226,3210,0.0,0.0,3.0
9.183945894241333,4095,0.0,0.0,3.0
9.19017767906189,3236,0.0,0.0,3.0
9.20455551147461,4095,0.0,0.0,3.0
9.213932752609253,3302,0.0,0.0,3.0
9.224917888641357,4095,0.0,0.0,3.0
9.234954357147217,4095,0.0,0.0,3.0
9.244895458221436,4095,0.0,0.0,3.0
9.25446105003357,4095,0.0,0.0,3.0
9.263313293457031,4095,0.0,0.0,3.0
9.274373054504395,3920,0.0,0.0,3.0
9.284993171691895,4095,0.0,0.0,3.0
9.287664651870728,4095,0.0,0.0,3.0
9.304563999176025,4095,0.0,0.0,3.0
9.314296007156372,1499,0.0,0.0,3.0
9.324667930603027,4095,0.0,0.0,3.0
9.33142638206482,1363,0.0,0.0,3.0
9.344817161560059,4095,0.0,0.0,3.0
9.354624509811401,3850,0.0,0.0,3.0
9.363920211791992,4095,0.0,0.0,3.0
9.374492883682251,4095,0.0,0.0,3.0
9.382031440734863,4095,0.0,0.0,3.0
9.389760255813599,3931,0.0,0.0,3.0
9.40386414527893,4095,0.0,0.0,3.0
9.414983034133911,4095,0.0,0.0,3.0
9.423758268356323,4095,0.0,0.0,3.0
9.434916257858276,4095,0.0,0.0,3.0
9.444759607315063,4095,0.0,0.0,3.0
9.454013586044312,4095,0.0,0.0,3.0
9.462979078292847,4095,0.0,0.0,3.0
9.473914861679077,4095,0.0,0.0,3.0
9.48500919342041,4095,0.0,0.0,3.0
9.489537715911865,4095,0.0,0.0,3.0
9.504936933517456,4095,0.0,0.0,3.0
9.513850688934326,4095,0.0,0.0,3.0
9.523947477340698,4095,0.0,0.0,3.0
9.534883975982666,4095,0.0,0.0,3.0
9.544347286224365,4095,0.0,0.0,3.0
9.554766416549683,4095,0.0,0.0,3.0
9.564929246902466,4095,0.0,0.0,3.0
9.57413649559021,4095,0.0,0.0,3.0
9.584919929504395,4095,0.0,0.0,3.0
9.593698024749756,4095,0.0,0.0,3.0
9.604464292526245,4095,0.0,0.0,3.0
9.614853382110596,4095,0.0,0.0,3.0
9.624133348464966,4095,0.0,0.0,3.0
9.627660512924194,4095,0.0,0.0,3.0
9.644605159759521,4095,0.0,0.0,3.0
9.654726505279541,4095,0.0,0.0,3.0
9.664805173873901,4095,0.0,0.0,3.0
9.67491626739502,2538,0.0,0.0,3.0
9.684128999710083,4095,0.0,0.0,3.0
9.690173864364624,2766,0.0,0.0,3.0
9.704450845718384,4095,0.0,0.0,3.0
9.714925765991211,2443,0.0,0.0,3.0
9.72487735748291,4095,0.0,0.0,3.0
9.733762741088867,2448,0.0,0.0,3.0
9.74420690536499,4095,0.0,0.0,3.0
9.75446629524231,2535,0.0,0.0,3.0
9.76374363899231,4095,0.0,0.0,3.0
9.774746417999268,4095,0.0,0.0,3.0
9.784145593643188,4095,0.0,0.0,3.0
9.789568901062012,4095,0.0,0.0,3.0
9.804968357086182,4095,0.0,0.0,3.0
9.81401538848877,4095,0.0,0.0,3.0
9.820772647857666,4095,0.0,0.0,3.0
9.834929943084717,4095,0.0,0.0,3.0
9.844883680343628,4095,0.0,0.0,3.0
9.854893684387207,4095,0.0,0.0,3.0
9.864990472793579,4095,0.0,0.0,3.0
9.87494421005249,4095,0.0,0.0,3.0
9.884974002838135,4095,0.0,0.0,3.0
9.888863801956177,4095,0.0,0.0,3.0
9.904295682907104,4095,0.0,0.0,3.0
9.914909601211548,3647,0.0,0.0,3.0
9.920656204223633,4095,0.0,0.0,3.0
9.934936761856079,4095,0.0,0.0,3.0
9.9443519115448,4095,0.0,0.0,3.0
9.954249858856201,4095,0.0,0.0,3.0
9.964304447174072,4095,0.0,0.0,3.0
9.97494101524353,4095,0.0,0.0,3.0
9.98491096496582,4095,0.0,0.0,3.0
9.995186567306519,4095,0.0,0.0,3.0
10.004514217376709,4095,0.0,0.0,3.0
10.014965534210205,4095,0.0,0.0,3.0
10.02058744430542,4095,0.0,0.0,3.0
10.031226873397827,4095,0.0,0.0,3.0
10.036528587341309,4095,0.0,0.0,3.0
10.053828477859497,4095,0.0,0.0,3.0
10.063931465148926,4095,0.0,0.0,3.0
10.07497239112854,4095,0.0,0.0,3.0
10.084516048431396,4095,0.0,0.0,3.0
10.08793568611145,4095,0.0,0.0,3.0
10.10428524017334,4095,0.0,0.0,3.0
10.113851547241211,4095,0.0,0.0,3.0
10.12158489227295,4095,0.0,0.0,3.0
10.134491920471191,4095,0.0,0.0,3.0
10.14494776725769,4095,0.0,0.0,3.0
10.15317177772522,4095,0.0,0.0,3.0
10.163845777511597,4095,0.0,0.0,3.0
10.173640727996826,4095,0.0,0.0,3.0
10.1814444065094,4095,0.0,0.0,3.0
10.189060688018799,4095,0.0,0.0,3.0
10.204275608062744,4095,0.0,0.0,3.0
10.214455366134644,4095,0.0,0.0,3.0
10.224249601364136,4095,0.0,0.0,3.0
10.234288454055786,4095,0.0,0.0,3.0
10.24482798576355,4095,0.0,0.0,3.0
10.253738403320312,4095,0.0,0.0,3.0
10.263916254043579,4095,0.0,0.0,3.0
10.274795532226562,4095,0.0,0.0,3.0
10.28494906425476,4095,0.0,0.0,3.0
10.293905019760132,4095,0.0,0.0,3.0
10.304665803909302,4095,0.0,0.0,3.0
10.3109130859375,4095,0.0,0.0,3.0
10.32456374168396,4095,0.0,0.0,3.0
10.334920406341553,4095,0.0,0.0,3.0
10.344633102416992,4095,0.0,0.0,3.0
10.354729652404785,4095,0.0,0.0,3.0
10.364547967910767,4095,0.0,0.0,3.0
10.374476432800293,4095,0.0,0.0,3.0
10.383584976196289,4095,0.0,0.0,3.0
10.394788026809692,4095,0.0,0.0,3.0
10.40451955795288,4095,0.0,0.0,3.0
10.414933443069458,4095,0.0,0.0,3.0
10.424441576004028,4095,0.0,0.0,3.0
10.433933973312378,4095,0.0,0.0,3.0
10.44393539428711,1814,0.0,0.0,3.0
10.454229831695557,4095,0.0,0.0,3.0
10.464631080627441,2176,0.0,0.0,3.0
10.473775148391724,4095,0.0,0.0,3.0
10.484979152679443,2558,0.0,0.0,3.0
10.49387502670288,4095,0.0,0.0,3.0
10.50371789932251,4095,0.0,0.0,3.0
10.513915061950684,4095,0.0,0.0,3.0
10.52457308769226,4095,0.0,0.0,3.0
10.534873247146606,4095,0.0,0.0,3.0
10.543829679489136,4095,0.0,0.0,3.0
10.553893089294434,4095,0.0,0.0,3.0
10.563093662261963,4095,0.0,0.0,3.0
10.57422161102295,4095,0.0,0.0,3.0
10.578448057174683,2215,0.0,0.0,3.0
10.593714475631714,4095,0.0,0.0,3.0
10.604101419448853,4095,0.0,0.0,3.0
10.614596128463745,4095,0.0,0.0,3.0
10.623997688293457,4095,0.0,0.0,3.0
10.63390588760376,4095,0.0,0.0,3.0
10.641605854034424,4095,0.0,0.0,3.0
10.65390944480896,4095,0.0,0.0,3.0
10.663848876953125,4095,0.0,0.0,3.0
10.673742294311523,4095,0.0,0.0,3.0
10.675750017166138,4095,0.0,0.0,3.0
10.694709539413452,4095,0.0,0.0,3.0
10.703755855560303,4095,0.0,0.0,3.0
10.710205554962158,4095,0.0,0.0,3.0
10.724611759185791,4095,0.0,0.0,3.0
10.735021114349365,4095,0.0,0.0,3.0
10.743986368179321,4095,0.0,0.0,3.0
10.754521369934082,4095,0.0,0.0,3.0
10.764010667800903,4095,0.0,0.0,3.0
10.773864984512329,4095,0.0,0.0,3.0
10.777875661849976,4095,0.0,0.0,3.0
10.79463243484497,4095,0.0,0.0,3.0
10.803724527359009,4095,0.0,0.0,3.0
10.81417202949524,4095,0.0,0.0,3.0
10.824070930480957,4095,0.0,0.0,3.0
10.833999872207642,4095,0.0,0.0,3.0
10.84403371810913,4095,0.0,0.0,3.0
10.853896379470825,4095,0.0,0.0,3.0
10.863987922668457,4095,0.0,0.0,3.0
10.873677968978882,4095,0.0,0.0,3.0
10.883985042572021,4095,0.0,0.0,3.0
10.892014980316162,4095,0.0,0.0,3.0
10.904727935791016,4095,0.0,0.0,3.0
10.911208152770996,4095,0.0,0.0,3.0
10.924281120300293,4095,0.0,0.0,3.0
10.925277471542358,4095,0.0,0.0,3.0
10.943987607955933,4095,0.0,0.0,3.0
10.95374059677124,4095,0.0,0.0,3.0
10.958846807479858,4095,0.0,0.0,3.0
10.974336385726929,4095,0.0,0.0,3.0
10.979739427566528,4095,0.0,0.0,3.0
10.9948410987854,4095,0.0,0.0,3.0
11.003979206085205,4095,0.0,0.0,3.0
11.013834238052368,4095,0.0,0.0,3.0
11.02446460723877,4095,0.0,0.0,3.0
11.034797191619873,4095,0.0,0.0,3.0
11.044568538665771,4095,0.0,0.0,3.0
11.05411171913147,4095,0.0,0.0,3.0
11.060689449310303,4095,0.0,0.0,3.0
11.074733257293701,4095,0.0,0.0,3.0
11.0757315158844,4095,0.0,0.0,3.0
11.093795537948608,4095,0.0,0.0,3.0
11.103646755218506,4095,0.0,0.0,3.0
11.108185768127441,4095,0.0,0.0,3.0
11.124573707580566,4095,0.0,0.0,3.0
11.133963584899902,4095,0.0,0.0,3.0
11.144413709640503,4095,0.0,0.0,3.0
11.153835773468018,4095,0.0,0.0,3.0
11.164012670516968,4095,0.0,0.0,3.0
11.174272537231445,4095,0.0,0.0,3.0
11.185011625289917,4095,0.0,0.0,3.0
11.193960189819336,4095,0.0,0.0,3.0
11.203739166259766,4095,0.0,0.0,3.0
11.208640336990356,4095,0.0,0.0,3.0
11.22396969795227,4095,0.0,0.0,3.0
11.234035015106201,4095,0.0,0.0,3.0
11.244328737258911,4095,0.0,0.0,3.0
11.25359058380127,4095,0.0,0.0,3.0
11.264750242233276,4095,0.0,0.0,3.0
11.274682760238647,4095,0.0,0.0,3.0
11.284887790679932,4095,0.0,0.0,3.0
11.294886350631714,4095,0.0,0.0,3.0
11.303735494613647,4095,0.0,0.0,3.0
11.309064865112305,4095,0.0,0.0,3.0
11.323708534240723,4095,0.0,0.0,3.0
11.333958864212036,4095,0.0,0.0,3.0
11.342997312545776,4095,0.0,0.0,3.0
11.353797435760498,4095,0.0,0.0,3.0
11.359968423843384,4095,0.0,0.0,3.0
11.37399673461914,4095,0.0,0.0,3.0
11.384932041168213,4095,0.0,0.0,3.0
11.393037796020508,4095,0.0,0.0,3.0
11.403632879257202,4095,0.0,0.0,3.0
11.407835721969604,4095,0.0,0.0,3.0
11.424944400787354,4095,0.0,0.0,3.0
11.434460163116455,4095,0.0,0.0,3.0
11.444296836853027,4095,0.0,0.0,3.0
11.453981876373291,4095,0.0,0.0,3.0
11.465015888214111,4095,0.0,0.0,3.0
11.47371530532837,4095,0.0,0.0,3.0
11.478400230407715,4095,0.0,0.0,3.0
11.49368953704834,4095,0.0,0.0,3.0
11.504011392593384,4095,0.0,0.0,3.0
11.510436296463013,4095,0.0,0.0,3.0
11.520437955856323,4095,0.0,0.0,3.0
11.534968614578247,4095,0.0,0.0,3.0
11.54395079612732,4095,0.0,0.0,3.0
11.55428957939148,4095,0.0,0.0,3.0
11.564966440200806,4095,0.0,0.0,3.0
11.57498550415039,4095,0.0,0.0,3.0
11.58395004272461,4095,0.0,0.0,3.0
11.587194442749023,4095,0.0,0.0,3.0
11.604357242584229,4095,0.0,0.0,3.0
11.613908052444458,4095,0.0,0.0,3.0
11.623774290084839,4095,0.0,0.0,3.0
11.626814126968384,4095,0.0,0.0,3.0
11.643985033035278,4095,0.0,0.0,3.0
11.653840780258179,4095,0.0,0.0,3.0
11.663954496383667,4095,0.0,0.0,3.0
11.671249866485596,4095,0.0,0.0,3.0
11.68491244316101,4095,0.0,0.0,3.0
11.687264680862427,4095,0.0,0.0,3.0
11.704178810119629,4095,0.0,0.0,3.0
11.713972330093384,4095,0.0,0.0,3.0
11.723950624465942,4095,0.0,0.0,3.0
11.734982967376709,4095,0.0,0.0,3.0
11.743951082229614,4095,0.0,0.0,3.0
11.754250764846802,4095,0.0,0.0,3.0
11.765028476715088,4095,0.0,0.0,3.0
11.773951053619385,4095,0.0,0.0,3.0
11.78396201133728,4095,0.0,0.0,3.0
11.7939612865448,4095,0.0,0.0,3.0
11.804286241531372,4095,0.0,0.0,3.0
11.813668489456177,4095,0.0,0.0,3.0
11.823776245117188,4095,0.0,0.0,3.0
11.83382272720337,4095,0.0,0.0,3.0
11.843864917755127,4095,0.0,0.0,3.0
11.85395336151123,4095,0.0,0.0,3.0
11.864553928375244,4095,0.0,0.0,3.0
11.874484777450562,4095,0.0,0.0,3.0
11.883848667144775,4095,0.0,0.0,3.0
11.893925905227661,4095,0.0,0.0,3.0
11.904216527938843,4095,0.0,0.0,3.0
11.913822650909424,4095,0.0,0.0,3.0
11.923888921737671,4095,0.0,0.0,3.0
11.933884382247925,4095,0.0,0.0,3.0
11.943885326385498,4095,0.0,0.0,3.0
11.953878402709961,4095,0.0,0.0,3.0
11.963801145553589,4095,0.0,0.0,3.0
11.973903894424438,4095,0.0,0.0,3.0
11.983778476715088,4095,0.0,0.0,3.0
11.993884325027466,4095,0.0,0.0,3.0
12.00460696220398,4095,0.0,0.0,3.0
12.013963222503662,4095,0.0,0.0,3.0
12.023787260055542,4095,0.0,0.0,3.0
12.033878087997437,4095,0.0,0.0,3.0
12.043877840042114,4095,0.0,0.0,3.0
12.053799629211426,4095,0.0,0.0,3.0
12.064733266830444,4095,0.0,0.0,3.0
12.070789337158203,4095,0.0,0.0,3.0
12.078392028808594,4095,0.0,0.0,3.0
12.094243288040161,4095,0.0,0.0,3.0
12.104626655578613,4095,0.0,0.0,3.0
12.114665508270264,4095,0.0,0.0,3.0
12.121114492416382,4095,0.0,0.0,3.0
12.133954048156738,4095,0.0,0.0,3.0
12.143953323364258,4095,0.0,0.0,3.0
12.153925657272339,4095,0.0,0.0,3.0
12.163945436477661,4095,0.0,0.0,3.0
12.173953294754028,4095,0.0,0.0,3.0
12.183932304382324,4095,0.0,0.0,3.0
12.19379734992981,4095,0.0,0.0,3.0
12.203830003738403,4095,0.0,0.0,3.0
12.213830471038818,4095,0.0,0.0,3.0
12.223827838897705,4095,0.0,0.0,3.0
12.233782052993774,4095,0.0,0.0,3.0
12.234782457351685,4095,0.0,0.0,3.0
12.244789361953735,4095,0.0,0.0,3.0
12.263887166976929,4095,0.0,0.0,3.0
12.27483057975769,4095,0.0,0.0,3.0
12.284367084503174,4095,0.0,0.0,3.0
12.293784618377686,4095,0.0,0.0,3.0
12.303797721862793,4095,0.0,0.0,3.0
12.31386113166809,4095,0.0,0.0,3.0
12.320375919342041,4095,0.0,0.0,3.0
12.329781293869019,4095,0.0,0.0,3.0
12.337923049926758,4095,0.0,0.0,3.0
12.35384488105774,4095,0.0,0.0,3.0
12.363832235336304,4095,0.0,0.0,3.0
12.373833656311035,4095,0.0,0.0,3.0
12.383835077285767,4095,0.0,0.0,3.0
12.38483214378357,4095,0.0,0.0,3.0
12.403897762298584,4095,0.0,0.0,3.0
12.41383671760559,4095,0.0,0.0,3.0
12.42383861541748,4095,0.0,0.0,3.0
12.433888673782349,4095,0.0,0.0,3.0
12.443877935409546,4095,0.0,0.0,3.0
12.453857660293579,4095,0.0,0.0,3.0
12.463855743408203,4095,0.0,0.0,3.0
12.464853763580322,4095,0.0,0.0,3.0
12.4838228225708,4095,0.0,0.0,3.0
12.487735748291016,4095,0.0,0.0,3.0
12.502933979034424,4095,0.0,0.0,3.0
12.50615406036377,4095,0.0,0.0,3.0
12.521255493164062,4095,0.0,0.0,3.0
12.532578945159912,4095,0.0,0.0,3.0
12.53861927986145,4095,0.0,0.0,3.0
12.548646926879883,4095,0.0,0.0,3.0
12.558651447296143,4095,0.0,0.0,3.0
12.56864595413208,4095,0.0,0.0,3.0
12.578646898269653,4095,0.0,0.0,3.0
12.588647365570068,4095,0.0,0.0,3.0
12.59864592552185,4095,0.0,0.0,3.0
12.613530158996582,4095,0.0,0.0,3.0
12.623575687408447,4095,0.0,0.0,3.0
12.63355827331543,4095,0.0,0.0,3.0
12.643558263778687,4095,0.0,0.0,3.0
12.653562068939209,4095,0.0,0.0,3.0
12.66355562210083,4095,0.0,0.0,3.0
12.673558473587036,4095,0.0,0.0,3.0
12.683558464050293,4095,0.0,0.0,3.0
12.693610906600952,4095,0.0,0.0,3.0
12.703069686889648,4095,0.0,0.0,3.0
12.71372389793396,4095,0.0,0.0,3.0
12.719710111618042,4095,0.0,0.0,3.0
12.7288339138031,4095,0.0,0.0,3.0
12.736730337142944,4095,0.0,0.0,3.0
12.75378155708313,4095,0.0,0.0,3.0
12.763854503631592,4095,0.0,0.0,3.0
12.764851570129395,4095,0.0,0.0,3.0
12.774849653244019,4095,0.0,0.0,3.0
12.78485894203186,4095,0.0,0.0,3.0
12.794851303100586,4095,0.0,0.0,3.0
12.804852962493896,4095,0.0,0.0,3.0
12.823565244674683,4095,0.0,0.0,3.0
12.833577394485474,4095,0.0,0.0,3.0
12.843578100204468,4095,0.0,0.0,3.0
12.85357403755188,4095,0.0,0.0,3.0
12.863577842712402,1149,0.0,0.0,3.0
12.873574018478394,4095,0.0,0.0,3.0
12.88357663154602,1175,0.0,0.0,3.0
12.893576622009277,4095,0.0,0.0,3.0
12.903686285018921,1227,0.0,0.0,3.0
12.91233777999878,4095,0.0,0.0,3.0
12.92198920249939,1280,0.0,0.0,3.0
12.929999828338623,4095,0.0,0.0,3.0
12.943562507629395,1329,0.0,0.0,3.0
12.953513145446777,4095,0.0,0.0,3.0
12.96351957321167,1392,0.0,0.0,3.0
12.973516464233398,4095,0.0,0.0,3.0
12.983520746231079,1431,0.0,0.0,3.0
12.993516445159912,4095,0.0,0.0,3.0
13.003516435623169,1473,0.0,0.0,3.0
13.01352071762085,4095,0.0,0.0,3.0
13.023539543151855,1532,0.0,0.0,3.0
13.03351640701294,4095,0.0,0.0,3.0
13.043568134307861,1550,0.0,0.0,3.0
13.049588203430176,4095,0.0,0.0,3.0
13.059614658355713,1584,0.0,0.0,3.0
13.069595098495483,4095,0.0,0.0,3.0
13.07959532737732,3040,0.0,0.0,3.0
13.092984914779663,4095,0.0,0.0,3.0
13.096105337142944,2497,0.0,0.0,3.0
13.109223127365112,4095,0.0,0.0,3.0
13.122942924499512,1438,0.0,0.0,3.0
13.127556085586548,4095,0.0,0.0,3.0
13.137633085250854,1794,0.0,0.0,3.0
13.152224063873291,4095,0.0,0.0,3.0
13.16106367111206,1943,0.0,0.0,3.0
13.169063329696655,4095,0.0,0.0,3.0
13.183555841445923,1980,0.0,0.0,3.0
13.193567752838135,4095,0.0,0.0,3.0
13.203568458557129,1969,0.0,0.0,3.0
13.213568449020386,4095,0.0,0.0,3.0
13.223571062088013,1974,0.0,0.0,3.0
13.224888563156128,4095,0.0,0.0,3.0
13.234899997711182,2214,0.0,0.0,3.0
13.24491834640503,4095,0.0,0.0,3.0
13.25490117073059,2128,0.0,0.0,3.0
13.273555278778076,4095,0.0,0.0,3.0
13.28356385231018,2170,0.0,0.0,3.0
13.293567657470703,4095,0.0,0.0,3.0
13.303566455841064,1954,0.0,0.0,3.0
13.313790321350098,4095,0.0,0.0,3.0
13.319547891616821,1975,0.0,0.0,3.0
13.332906723022461,4095,0.0,0.0,3.0
13.337589740753174,1989,0.0,0.0,3.0
13.353531122207642,4095,0.0,0.0,3.0
13.361540794372559,2054,0.0,0.0,3.0
13.370595216751099,4095,0.0,0.0,3.0
13.383337497711182,2064,0.0,0.0,3.0
13.393189191818237,4095,0.0,0.0,3.0
13.40310788154602,2462,0.0,0.0,3.0
13.410200595855713,4095,0.0,0.0,3.0
13.420214176177979,2545,0.0,0.0,3.0
13.430214643478394,4095,0.0,0.0,3.0
13.443556308746338,2592,0.0,0.0,3.0
13.453564882278442,4095,0.0,0.0,3.0
13.46356749534607,2649,0.0,0.0,3.0
13.473567485809326,4095,0.0,0.0,3.0
13.483566999435425,2733,0.0,0.0,3.0
13.491271018981934,4095,0.0,0.0,3.0
13.502323865890503,2765,0.0,0.0,3.0
13.512340545654297,4095,0.0,0.0,3.0
13.522732019424438,2795,0.0,0.0,3.0
13.533746242523193,4095,0.0,0.0,3.0
13.540601015090942,2879,0.0,0.0,3.0
13.553349018096924,4095,0.0,0.0,3.0
13.563554763793945,3066,0.0,0.0,3.0
13.57126760482788,4095,0.0,0.0,3.0
13.581276655197144,3134,0.0,0.0,3.0
13.591277122497559,4095,0.0,0.0,3.0
13.603157758712769,2701,0.0,0.0,3.0
13.613170146942139,4095,0.0,0.0,3.0
13.623170375823975,2703,0.0,0.0,3.0
13.63317346572876,4095,0.0,0.0,3.0
13.643333435058594,2754,0.0,0.0,3.0
13.644349575042725,4095,0.0,0.0,3.0
13.654359102249146,2946,0.0,0.0,3.0
13.664360046386719,4095,0.0,0.0,3.0
13.674360036849976,2991,0.0,0.0,3.0
13.684360265731812,4095,0.0,0.0,3.0
13.694361209869385,3047,0.0,0.0,3.0
13.704360246658325,4095,0.0,0.0,3.0
13.714359998703003,1619,0.0,0.0,3.0
13.724360227584839,4095,0.0,0.0,3.0
13.743664264678955,2205,0.0,0.0,3.0
13.768101453781128,4095,0.0,0.0,3.0
13.768101453781128,3859,0.0,0.0,3.0
13.772296667098999,4095,0.0,0.0,3.0
13.783163785934448,3246,0.0,0.0,3.0
13.793325185775757,4095,0.0,0.0,3.0
13.803273916244507,3260,0.0,0.0,3.0
13.806938171386719,4095,0.0,0.0,3.0
13.816956281661987,3347,0.0,0.0,3.0
13.826956033706665,4095,0.0,0.0,3.0
13.843605518341064,3564,0.0,0.0,3.0
13.851085901260376,4095,0.0,0.0,3.0
13.86378026008606,3822,0.0,0.0,3.0
13.87278437614441,4095,0.0,0.0,3.0
13.880937337875366,3665,0.0,0.0,3.0
13.89343786239624,4095,0.0,0.0,3.0
13.901695728302002,3738,0.0,0.0,3.0
13.913068294525146,4095,0.0,0.0,3.0
13.922816038131714,3919,0.0,0.0,3.0
13.929316520690918,4095,0.0,0.0,3.0
13.94164752960205,3987,0.0,0.0,3.0
13.953579425811768,4095,0.0,0.0,3.0
13.963103771209717,4095,0.0,0.0,3.0
13.972842454910278,4095,0.0,0.0,3.0
13.983684301376343,4095,0.0,0.0,3.0
13.99256157875061,4095,0.0,0.0,3.0
14.003042936325073,4095,0.0,0.0,3.0
14.005258798599243,4095,0.0,0.0,3.0
14.02341365814209,4095,0.0,0.0,3.0
14.02439546585083,4095,0.0,0.0,3.0
14.035916566848755,4095,0.0,0.0,3.0
14.045917510986328,4095,0.0,0.0,3.0
14.055914878845215,4095,0.0,0.0,3.0
14.0671865940094,4095,0.0,0.0,3.0
14.08016037940979,4095,0.0,0.0,3.0
14.093657493591309,4095,0.0,0.0,3.0
14.103670835494995,4095,0.0,0.0,3.0
14.113663911819458,4095,0.0,0.0,3.0
14.123664617538452,4095,0.0,0.0,3.0
14.133664846420288,4095,0.0,0.0,3.0
14.143664598464966,4095,0.0,0.0,3.0
14.153662204742432,4095,0.0,0.0,3.0
14.163797378540039,4095,0.0,0.0,3.0
14.17250919342041,4095,0.0,0.0,3.0
14.181873083114624,4095,0.0,0.0,3.0
14.18701982498169,4095,0.0,0.0,3.0
14.203009843826294,4095,0.0,0.0,3.0
14.211064338684082,4095,0.0,0.0,3.0
14.219098806381226,4095,0.0,0.0,3.0
14.230072259902954,4095,0.0,0.0,3.0
14.240072250366211,4095,0.0,0.0,3.0
14.250072479248047,4095,0.0,0.0,3.0
14.2600736618042,4095,0.0,0.0,3.0
14.27007246017456,4095,0.0,0.0,3.0
14.280072927474976,4095,0.0,0.0,3.0
14.290072441101074,4095,0.0,0.0,3.0
14.300072431564331,4095,0.0,0.0,3.0
14.31007194519043,4095,0.0,0.0,3.0
14.320072412490845,4095,0.0,0.0,3.0
14.33355450630188,4095,0.0,0.0,3.0
14.343566656112671,4095,0.0,0.0,3.0
14.353661298751831,4095,0.0,0.0,3.0
14.353661298751831,4095,0.0,0.0,3.0
14.364629030227661,4095,0.0,0.0,3.0
14.383167266845703,4095,0.0,0.0,3.0
14.392314434051514,4095,0.0,0.0,3.0
14.40300464630127,4095,0.0,0.0,3.0
14.412037134170532,4095,0.0,0.0,3.0
14.419486999511719,4095,0.0,0.0,3.0
14.427496194839478,4095,0.0,0.0,3.0
14.435532808303833,4095,0.0,0.0,3.0
14.446516275405884,4095,0.0,0.0,3.0
14.456517457962036,4095,0.0,0.0,3.0
14.466516256332397,4095,0.0,0.0,3.0
14.476551055908203,4095,0.0,0.0,3.0
14.486517667770386,4095,0.0,0.0,3.0
14.496516227722168,4095,0.0,0.0,3.0
14.506516456604004,4095,0.0,0.0,3.0
14.516516208648682,4095,0.0,0.0,3.0
14.526516437530518,4095,0.0,0.0,3.0
14.536523580551147,4095,0.0,0.0,3.0
14.546516418457031,4095,0.0,0.0,3.0
14.55653715133667,4095,0.0,0.0,3.0
14.566516399383545,4095,0.0,0.0,3.0
14.576516389846802,4095,0.0,0.0,3.0
14.586549997329712,4095,0.0,0.0,3.0
14.602531671524048,4095,0.0,0.0,3.0
14.613896131515503,4095,0.0,0.0,3.0
14.620932340621948,4095,0.0,0.0,3.0
14.629913806915283,4095,0.0,0.0,3.0
14.638213634490967,4095,0.0,0.0,3.0
14.65352487564087,4095,0.0,0.0,3.0
14.663563251495361,4095,0.0,0.0,3.0
14.673537015914917,4095,0.0,0.0,3.0
14.683695554733276,4095,0.0,0.0,3.0
14.684691667556763,4095,0.0,0.0,3.0
14.694714784622192,4095,0.0,0.0,3.0
14.704715013504028,4095,0.0,0.0,3.0
14.714717626571655,4095,0.0,0.0,3.0
14.724725246429443,4095,0.0,0.0,3.0
14.734715461730957,4095,0.0,0.0,3.0
14.744714975357056,4095,0.0,0.0,3.0
14.756381034851074,4095,0.0,0.0,3.0
14.769424200057983,4095,0.0,0.0,3.0
14.779436111450195,4095,0.0,0.0,3.0
14.789437770843506,4095,0.0,0.0,3.0
14.799436092376709,4095,0.0,0.0,3.0
14.813658952713013,4095,0.0,0.0,3.0
14.821953535079956,4095,0.0,0.0,3.0
14.82996678352356,4095,0.0,0.0,3.0
14.838411092758179,4095,0.0,0.0,3.0
14.853569269180298,4095,0.0,0.0,3.0
14.863669157028198,4095,0.0,0.0,3.0
14.873669385910034,4095,0.0,0.0,3.0
14.883674621582031,4095,0.0,0.0,3.0
14.893672704696655,4095,0.0,0.0,3.0
14.903669118881226,4095,0.0,0.0,3.0
14.913669109344482,4095,0.0,0.0,3.0
14.92366886138916,4095,0.0,0.0,3.0
14.933666467666626,4095,0.0,0.0,3.0
14.943666696548462,4095,0.0,0.0,3.0
14.953666687011719,4095,0.0,0.0,3.0
14.963673114776611,4095,0.0,0.0,3.0
14.973672866821289,4095,0.0,0.0,3.0
14.98366928100586,4095,0.0,0.0,3.0
14.993669271469116,4095,0.0,0.0,3.0
15.003666639328003,4095,0.0,0.0,3.0
15.013723850250244,4095,0.0,0.0,3.0
15.02296757698059,4095,0.0,0.0,3.0
15.025959730148315,4095,0.0,0.0,3.0
15.03641676902771,4095,0.0,0.0,3.0
15.053550481796265,4095,0.0,0.0,3.0
15.061559677124023,4095,0.0,0.0,3.0
15.070626735687256,4095,0.0,0.0,3.0
15.080633401870728,4095,0.0,0.0,3.0
15.090633153915405,4095,0.0,0.0,3.0
15.100633382797241,4032,0.0,0.0,3.0
15.111699104309082,4095,0.0,0.0,3.0
15.117536067962646,4095,0.0,0.0,3.0
15.127539873123169,4095,0.0,0.0,3.0
15.137540102005005,4095,0.0,0.0,3.0
15.147539854049683,4095,0.0,0.0,3.0
15.163554430007935,4095,0.0,0.0,3.0
15.173565864562988,4095,0.0,0.0,3.0
15.183565855026245,4095,0.0,0.0,3.0
15.193567037582397,4095,0.0,0.0,3.0
15.203567028045654,4095,0.0,0.0,3.0
15.21376085281372,4095,0.0,0.0,3.0
15.214757919311523,4095,0.0,0.0,3.0
15.233657121658325,4095,0.0,0.0,3.0
15.236762046813965,4095,0.0,0.0,3.0
15.253159046173096,4095,0.0,0.0,3.0
15.263161659240723,4095,0.0,0.0,3.0
15.270114421844482,4095,0.0,0.0,3.0
15.28029203414917,4095,0.0,0.0,3.0
15.29127311706543,4095,0.0,0.0,3.0
15.301241874694824,4095,0.0,0.0,3.0
15.311240673065186,4095,0.0,0.0,3.0
15.321240186691284,4095,0.0,0.0,3.0
15.33124041557312,4095,0.0,0.0,3.0
15.341279029846191,4095,0.0,0.0,3.0
15.351240158081055,4095,0.0,0.0,3.0
15.361241579055786,4095,0.0,0.0,3.0
15.371240377426147,4095,0.0,0.0,3.0
15.381240606307983,4095,0.0,0.0,3.0
15.393554210662842,4095,0.0,0.0,3.0
15.403566360473633,4095,0.0,0.0,3.0
15.413567304611206,4095,0.0,0.0,3.0
15.423550367355347,4095,0.0,0.0,3.0
15.433562994003296,4095,0.0,0.0,3.0
15.44367265701294,4095,0.0,0.0,3.0
15.4527006149292,4095,0.0,0.0,3.0
15.457820177078247,4095,0.0,0.0,3.0
15.47046422958374,4095,0.0,0.0,3.0
15.478484630584717,4095,0.0,0.0,3.0
15.486762523651123,4095,0.0,0.0,3.0
15.503563642501831,4095,0.0,0.0,3.0
15.513653993606567,4095,0.0,0.0,3.0
15.523656606674194,4095,0.0,0.0,3.0
15.533656597137451,4095,0.0,0.0,3.0
15.535611867904663,4095,0.0,0.0,3.0
15.545619249343872,4095,0.0,0.0,3.0
15.555619239807129,4095,0.0,0.0,3.0
15.565637350082397,4095,0.0,0.0,3.0
15.575618028640747,4095,0.0,0.0,3.0
15.585618495941162,4095,0.0,0.0,3.0
15.59561800956726,4095,0.0,0.0,3.0
15.605618238449097,4095,0.0,0.0,3.0
15.615618228912354,4095,0.0,0.0,3.0
15.63190484046936,4095,0.0,0.0,3.0
15.64190936088562,4095,0.0,0.0,3.0
15.653307437896729,4095,0.0,0.0,3.0
15.66343069076538,4095,0.0,0.0,3.0
15.670578718185425,4095,0.0,0.0,3.0
15.678589582443237,4095,0.0,0.0,3.0
15.693779230117798,4095,0.0,0.0,3.0
15.7035231590271,4095,0.0,0.0,3.0
15.71361517906189,4095,0.0,0.0,3.0
15.723615169525146,4095,0.0,0.0,3.0
15.733617544174194,4095,0.0,0.0,3.0
15.74361515045166,4095,0.0,0.0,3.0
15.744879007339478,4095,0.0,0.0,3.0
15.75488543510437,4095,0.0,0.0,3.0
15.764895915985107,4095,0.0,0.0,3.0
15.774885416030884,4095,0.0,0.0,3.0
15.78488540649414,4095,0.0,0.0,3.0
15.794885635375977,4095,0.0,0.0,3.0
15.804885387420654,4095,0.0,0.0,3.0
15.81488585472107,4095,0.0,0.0,3.0
15.824885368347168,4095,0.0,0.0,3.0
15.834885358810425,4095,0.0,0.0,3.0
15.84488558769226,4095,0.0,0.0,3.0
15.854885339736938,4095,0.0,0.0,3.0
15.87227463722229,4095,0.0,0.0,3.0
15.88339614868164,4095,0.0,0.0,3.0
15.893402338027954,4095,0.0,0.0,3.0
15.903724193572998,4095,0.0,0.0,3.0
15.911729335784912,4095,0.0,0.0,3.0
15.919412851333618,4095,0.0,0.0,3.0
15.927485227584839,4095,0.0,0.0,3.0
15.935555219650269,4095,0.0,0.0,3.0
15.945556640625,4095,0.0,0.0,3.0
15.955557107925415,4095,0.0,0.0,3.0
15.965556859970093,4095,0.0,0.0,3.0
15.975556135177612,4095,0.0,0.0,3.0
15.985556364059448,4095,0.0,0.0,3.0
15.995556354522705,4095,0.0,0.0,3.0
16.00700855255127,4095,0.0,0.0,3.0
16.01705050468445,4095,0.0,0.0,3.0
16.027050256729126,4095,0.0,0.0,3.0
16.037050247192383,4095,0.0,0.0,3.0
16.04705047607422,4095,0.0,0.0,3.0
16.057050228118896,4095,0.0,0.0,3.0
16.06705117225647,4095,0.0,0.0,3.0
16.082968950271606,4095,0.0,0.0,3.0
16.090805292129517,4095,0.0,0.0,3.0
16.103482007980347,4095,0.0,0.0,3.0
16.111533880233765,4095,0.0,0.0,3.0
16.119175672531128,4095,0.0,0.0,3.0
16.127199411392212,4095,0.0,0.0,3.0
16.135257482528687,4095,0.0,0.0,3.0
16.151068687438965,4095,0.0,0.0,3.0
16.161071300506592,4095,0.0,0.0,3.0
16.172268867492676,4095,0.0,0.0,3.0
16.182310104370117,4095,0.0,0.0,3.0
16.192309141159058,4095,0.0,0.0,3.0
16.202309608459473,4095,0.0,0.0,3.0
16.21355652809143,4095,0.0,0.0,3.0
16.223572254180908,4095,0.0,0.0,3.0
16.233571767807007,4095,0.0,0.0,3.0
16.243587732315063,4095,0.0,0.0,3.0
16.253743410110474,4095,0.0,0.0,3.0
16.254741191864014,4095,0.0,0.0,3.0
16.26475977897644,4095,0.0,0.0,3.0
16.274760007858276,4095,0.0,0.0,3.0
16.29343032836914,4095,0.0,0.0,3.0
16.30258798599243,4095,0.0,0.0,3.0
16.310612440109253,4095,0.0,0.0,3.0
16.318933486938477,4095,0.0,0.0,3.0
16.32694172859192,4095,0.0,0.0,3.0
16.336698055267334,4095,0.0,0.0,3.0
16.346721649169922,4095,0.0,0.0,3.0
16.35672163963318,4095,0.0,0.0,3.0
16.366721868515015,4095,0.0,0.0,3.0
16.37672185897827,4095,0.0,0.0,3.0
16.386722326278687,4095,0.0,0.0,3.0
16.396722078323364,4095,0.0,0.0,3.0
16.406740188598633,4095,0.0,0.0,3.0
16.42355489730835,4095,0.0,0.0,3.0
16.43356728553772,4095,0.0,0.0,3.0
16.44356679916382,4095,0.0,0.0,3.0
16.453563451766968,4095,0.0,0.0,3.0
16.46374773979187,4095,0.0,0.0,3.0
16.473016262054443,4095,0.0,0.0,3.0
16.483485460281372,4095,0.0,0.0,3.0
16.489550352096558,4095,0.0,0.0,3.0
16.503217697143555,4095,0.0,0.0,3.0
16.513768672943115,4095,0.0,0.0,3.0
16.51919460296631,4095,0.0,0.0,3.0
16.527239084243774,4095,0.0,0.0,3.0
16.543644189834595,4095,0.0,0.0,3.0
16.55221438407898,4095,0.0,0.0,3.0
16.563745737075806,4095,0.0,0.0,3.0
16.573785066604614,4095,0.0,0.0,3.0
16.583754062652588,4095,0.0,0.0,3.0
16.59375262260437,4095,0.0,0.0,3.0
16.603753805160522,4095,0.0,0.0,3.0
16.61375379562378,4095,0.0,0.0,3.0
16.623757362365723,4095,0.0,0.0,3.0
16.63375234603882,4095,0.0,0.0,3.0
16.6437509059906,4095,0.0,0.0,3.0
16.653751373291016,4095,0.0,0.0,3.0
16.663750886917114,4095,0.0,0.0,3.0
16.67010521888733,4095,0.0,0.0,3.0
16.680108308792114,4095,0.0,0.0,3.0
16.69010853767395,4095,0.0,0.0,3.0
16.70010781288147,4095,0.0,0.0,3.0
16.712911128997803,4095,0.0,0.0,3.0
16.723124742507935,4095,0.0,0.0,3.0
16.72412347793579,4095,0.0,0.0,3.0
16.742146253585815,4095,0.0,0.0,3.0
16.753320693969727,4095,0.0,0.0,3.0
16.762328147888184,4095,0.0,0.0,3.0
16.770389795303345,4095,0.0,0.0,3.0
16.780389070510864,4095,0.0,0.0,3.0
16.790390729904175,4095,0.0,0.0,3.0
16.8026123046875,4095,0.0,0.0,3.0
16.8126277923584,4095,0.0,0.0,3.0
16.822629690170288,4095,0.0,0.0,3.0
16.83262872695923,4095,0.0,0.0,3.0
16.842628479003906,4095,0.0,0.0,3.0
16.853765964508057,4095,0.0,0.0,3.0
16.86377263069153,4095,0.0,0.0,3.0
16.87381339073181,4095,0.0,0.0,3.0
16.874810934066772,4095,0.0,0.0,3.0
16.884818077087402,4095,0.0,0.0,3.0
16.894818782806396,4095,0.0,0.0,3.0
16.90481686592102,4095,0.0,0.0,3.0
16.923595905303955,4095,0.0,0.0,3.0
16.932628870010376,4095,0.0,0.0,3.0
16.943214654922485,4095,0.0,0.0,3.0
16.953539609909058,4095,0.0,0.0,3.0
16.96157217025757,4095,0.0,0.0,3.0
16.969107151031494,4095,0.0,0.0,3.0
16.977116346359253,4095,0.0,0.0,3.0
16.986193418502808,4095,0.0,0.0,3.0
16.996200561523438,4095,0.0,0.0,3.0
17.006200551986694,4095,0.0,0.0,3.0
17.016204833984375,4095,0.0,0.0,3.0
17.026200532913208,4095,0.0,0.0,3.0
17.03620171546936,4095,0.0,0.0,3.0
17.0462007522583,4095,0.0,0.0,3.0
17.056200742721558,4095,0.0,0.0,3.0
17.066200971603394,4095,0.0,0.0,3.0
17.076207637786865,4095,0.0,0.0,3.0
17.08620047569275,4095,0.0,0.0,3.0
17.096200704574585,4095,0.0,0.0,3.0
17.106200456619263,4095,0.0,0.0,3.0
17.116201639175415,4095,0.0,0.0,3.0
17.133333206176758,4095,0.0,0.0,3.0
17.14179539680481,4095,0.0,0.0,3.0
17.153705835342407,4095,0.0,0.0,3.0
17.162681102752686,4095,0.0,0.0,3.0
17.168273448944092,4095,0.0,0.0,3.0
17.18325662612915,4095,0.0,0.0,3.0
17.192338228225708,4095,0.0,0.0,3.0
17.202340841293335,4095,0.0,0.0,3.0
17.212347507476807,4095,0.0,0.0,3.0
17.222339868545532,4095,0.0,0.0,3.0
17.23233985900879,4095,0.0,0.0,3.0
17.243481636047363,4095,0.0,0.0,3.0
17.244478940963745,4095,0.0,0.0,3.0
17.258694410324097,4095,0.0,0.0,3.0
17.273565769195557,4095,0.0,0.0,3.0
17.283697366714478,4095,0.0,0.0,3.0
17.29384732246399,4095,0.0,0.0,3.0
17.294845819473267,4095,0.0,0.0,3.0
17.30485963821411,4095,0.0,0.0,3.0
17.31596279144287,4095,0.0,0.0,3.0
17.325963735580444,4095,0.0,0.0,3.0
17.33596396446228,4095,0.0,0.0,3.0
17.352900505065918,4095,0.0,0.0,3.0
17.361892461776733,4095,0.0,0.0,3.0
17.368892908096313,4095,0.0,0.0,3.0
17.377787351608276,4095,0.0,0.0,3.0
17.39375591278076,4095,0.0,0.0,3.0
17.403536319732666,4095,0.0,0.0,3.0
17.41355013847351,4095,0.0,0.0,3.0
17.423548698425293,4095,0.0,0.0,3.0
17.43354868888855,4095,0.0,0.0,3.0
17.443554878234863,4095,0.0,0.0,3.0
17.453548192977905,4095,0.0,0.0,3.0
17.463544607162476,4095,0.0,0.0,3.0
17.47372007369995,4095,0.0,0.0,3.0
17.474717617034912,4095,0.0,0.0,3.0
17.493553161621094,4095,0.0,0.0,3.0
17.503568649291992,4095,0.0,0.0,3.0
17.513572216033936,4095,0.0,0.0,3.0
17.52357578277588,4095,0.0,0.0,3.0
17.533576011657715,4095,0.0,0.0,3.0
17.543586492538452,4095,0.0,0.0,3.0
17.55357575416565,4095,0.0,0.0,3.0
17.56480097770691,4095,0.0,0.0,3.0
17.572319507598877,4095,0.0,0.0,3.0
17.581148862838745,4095,0.0,0.0,3.0
17.59363842010498,119,0.0,0.0,3.0
17.603562355041504,4095,0.0,0.0,3.0
17.61157464981079,132,0.0,0.0,3.0
17.619032621383667,4095,0.0,0.0,3.0
17.628151893615723,133,0.0,0.0,3.0
17.63620376586914,4095,0.0,0.0,3.0
17.648335695266724,146,0.0,0.0,3.0
17.658341884613037,4095,0.0,0.0,3.0
17.668341875076294,158,0.0,0.0,3.0
17.67834186553955,4095,0.0,0.0,3.0
17.691580057144165,90,0.0,0.0,3.0
17.694547653198242,0,0.0,0.0,3.0
17.704551458358765,0,0.0,0.0,3.0
17.714579582214355,0,0.0,0.0,3.0
17.724586248397827,0,0.0,0.0,3.0
17.734551429748535,0,0.0,0.0,3.0
17.75135898590088,0,0.0,0.0,3.0
17.757360696792603,0,0.0,0.0,3.0
17.77336597442627,0,0.0,0.0,3.0
17.783030033111572,0,0.0,0.0,3.0
17.78578495979309,0,0.0,0.0,3.0
17.80198621749878,0,0.0,0.0,3.0
17.81000280380249,0,0.0,0.0,3.0
17.818822145462036,0,0.0,0.0,3.0
17.829776763916016,0,0.0,0.0,3.0
17.83977508544922,0,0.0,0.0,3.0
17.849775314331055,0,0.0,0.0,3.0
17.85977554321289,0,0.0,0.0,3.0
17.86977529525757,0,0.0,0.0,3.0
17.879802942276,0,0.0,0.0,3.0
17.889775276184082,0,0.0,0.0,3.0
17.89977526664734,0,0.0,0.0,3.0
17.9097843170166,0,0.0,0.0,3.0
17.91977620124817,0,0.0,0.0,3.0
17.92977523803711,0,0.0,0.0,3.0
17.939775466918945,0,0.0,0.0,3.0
17.94977641105652,0,0.0,0.0,3.0
17.963524341583252,0,0.0,0.0,3.0
17.973536491394043,0,0.0,0.0,3.0
17.983715534210205,0,0.0,0.0,3.0
17.99269962310791,0,0.0,0.0,3.0
18.00296449661255,0,0.0,0.0,3.0
18.013067960739136,0,0.0,0.0,3.0
18.01861071586609,0,0.0,0.0,3.0
18.0278377532959,0,0.0,0.0,3.0
18.036349058151245,0,0.0,0.0,3.0
18.04636001586914,0,0.0,0.0,3.0
18.05635929107666,0,0.0,0.0,3.0
18.066704511642456,0,0.0,0.0,3.0
18.077675342559814,0,0.0,0.0,3.0
18.08891773223877,0,0.0,0.0,3.0
18.09906840324402,0,0.0,0.0,3.0
18.113525867462158,0,0.0,0.0,3.0
18.12353539466858,0,0.0,0.0,3.0
18.133538246154785,0,0.0,0.0,3.0
18.143535137176514,0,0.0,0.0,3.0
18.153538942337036,0,0.0,0.0,3.0
18.163737297058105,0,0.0,0.0,3.0
18.164733171463013,0,0.0,0.0,3.0
18.174739599227905,0,0.0,0.0,3.0
18.18601083755493,0,0.0,0.0,3.0
18.20184350013733,0,0.0,0.0,3.0
18.213114023208618,0,0.0,0.0,3.0
18.21952486038208,0,0.0,0.0,3.0
18.228564023971558,0,0.0,0.0,3.0
18.243733167648315,0,0.0,0.0,3.0
18.252833604812622,0,0.0,0.0,3.0
18.262833833694458,0,0.0,0.0,3.0
18.272834300994873,0,0.0,0.0,3.0
18.28283381462097,0,0.0,0.0,3.0
18.292836904525757,0,0.0,0.0,3.0
18.302836894989014,0,0.0,0.0,3.0
18.31299376487732,0,0.0,0.0,3.0
18.313989877700806,0,0.0,0.0,3.0
18.324071407318115,0,0.0,0.0,3.0
18.335060358047485,0,0.0,0.0,3.0
18.345060348510742,0,0.0,0.0,3.0
18.355061054229736,0,0.0,0.0,3.0
18.365060091018677,0,0.0,0.0,3.0
18.383551359176636,0,0.0,0.0,3.0
18.393542289733887,0,0.0,0.0,3.0
18.40354895591736,0,0.0,0.0,3.0
18.413626670837402,0,0.0,0.0,3.0
18.42339515686035,0,0.0,0.0,3.0
18.43144130706787,0,0.0,0.0,3.0
18.443013906478882,0,0.0,0.0,3.0
18.45198631286621,0,0.0,0.0,3.0
18.460800647735596,0,0.0,0.0,3.0
18.468878746032715,0,0.0,0.0,3.0
18.476990222930908,0,0.0,0.0,3.0
18.486987590789795,0,0.0,0.0,3.0
18.49947214126587,0,0.0,0.0,3.0
18.509488821029663,0,0.0,0.0,3.0
18.519489526748657,0,0.0,0.0,3.0
18.52949571609497,0,0.0,0.0,3.0
18.539488554000854,0,0.0,0.0,3.0
18.54948925971985,0,0.0,0.0,3.0
18.559489488601685,0,0.0,0.0,3.0
18.56948947906494,0,0.0,0.0,3.0
18.58298683166504,0,0.0,0.0,3.0
18.59300470352173,0,0.0,0.0,3.0
18.595000982284546,0,0.0,0.0,3.0
18.605016708374023,0,0.0,0.0,3.0
18.623623847961426,0,0.0,0.0,3.0
18.629350662231445,0,0.0,0.0,3.0
18.636237382888794,0,0.0,0.0,3.0
18.652833700180054,0,0.0,0.0,3.0
18.662116289138794,0,0.0,0.0,3.0
18.6685950756073,0,0.0,0.0,3.0
18.683757305145264,0,0.0,0.0,3.0
18.693764686584473,0,0.0,0.0,3.0
18.70376443862915,0,0.0,0.0,3.0
18.713764667510986,0,0.0,0.0,3.0
18.72025442123413,0,0.0,0.0,3.0
18.73025918006897,0,0.0,0.0,3.0
18.740259647369385,0,0.0,0.0,3.0
18.750259160995483,0,0.0,0.0,3.0
18.763527631759644,0,0.0,0.0,3.0
18.77354335784912,0,0.0,0.0,3.0
18.783539056777954,0,0.0,0.0,3.0
18.793542861938477,0,0.0,0.0,3.0
18.803543090820312,0,0.0,0.0,3.0
18.813539028167725,0,0.0,0.0,3.0
18.823559761047363,0,0.0,0.0,3.0
18.833670377731323,0,0.0,0.0,3.0
18.843509674072266,0,0.0,0.0,3.0
18.852216243743896,0,0.0,0.0,3.0
18.861199617385864,0,0.0,0.0,3.0
18.868451833724976,0,0.0,0.0,3.0
18.87646794319153,0,0.0,0.0,3.0
18.890825271606445,0,0.0,0.0,3.0
18.90355110168457,0,0.0,0.0,3.0
18.913562536239624,0,0.0,0.0,3.0
18.923563718795776,0,0.0,0.0,3.0
18.933563709259033,0,0.0,0.0,3.0
18.94356346130371,0,0.0,0.0,3.0
18.95356011390686,0,0.0,0.0,3.0
18.963563680648804,0,0.0,0.0,3.0
18.97356343269348,0,0.0,0.0,3.0
18.983563661575317,0,0.0,0.0,3.0
18.993563652038574,0,0.0,0.0,3.0
19.003563404083252,0,0.0,0.0,3.0
19.013563632965088,0,0.0,0.0,3.0
19.023569583892822,0,0.0,0.0,3.0
19.033571481704712,0,0.0,0.0,3.0
19.043628215789795,0,0.0,0.0,3.0
19.05279040336609,0,0.0,0.0,3.0
19.058121919631958,0,0.0,0.0,3.0
19.070010900497437,0,0.0,0.0,3.0
19.07803988456726,0,0.0,0.0,3.0
19.093573570251465,0,0.0,0.0,3.0
19.103675842285156,0,0.0,0.0,3.0
19.113699197769165,0,0.0,0.0,3.0
19.12369966506958,0,0.0,0.0,3.0
19.13369917869568,0,0.0,0.0,3.0
19.143697261810303,0,0.0,0.0,3.0
19.15369987487793,0,0.0,0.0,3.0
19.163551092147827,0,0.0,0.0,3.0
19.17356038093567,0,0.0,0.0,3.0
19.183563709259033,0,0.0,0.0,3.0
19.193561792373657,0,0.0,0.0,3.0
19.20357394218445,0,0.0,0.0,3.0
19.213573455810547,0,0.0,0.0,3.0
19.223572731018066,0,0.0,0.0,3.0
19.23357391357422,0,0.0,0.0,3.0
19.24035382270813,0,0.0,0.0,3.0
19.252909421920776,0,0.0,0.0,3.0
19.263225317001343,0,0.0,0.0,3.0
19.26943826675415,0,0.0,0.0,3.0
19.277448177337646,0,0.0,0.0,3.0
19.29310178756714,0,0.0,0.0,3.0
19.302634477615356,0,0.0,0.0,3.0
19.313764572143555,0,0.0,0.0,3.0
19.32377052307129,0,0.0,0.0,3.0
19.333771467208862,0,0.0,0.0,3.0
19.343770742416382,0,0.0,0.0,3.0
19.353772163391113,0,0.0,0.0,3.0
19.356427907943726,0,0.0,0.0,3.0
19.37044334411621,0,0.0,0.0,3.0
19.38048267364502,0,0.0,0.0,3.0
19.390485525131226,0,0.0,0.0,3.0
19.400482892990112,0,0.0,0.0,3.0
19.41048264503479,0,0.0,0.0,3.0
19.42048406600952,0,0.0,0.0,3.0
19.433632850646973,0,0.0,0.0,3.0
19.443654775619507,876,0.0,0.0,3.0
19.453653812408447,0,0.0,0.0,3.0
19.463765382766724,2826,0.0,0.0,3.0
19.47336459159851,0,0.0,0.0,3.0
19.48161745071411,4095,0.0,0.0,3.0
19.493476629257202,0,0.0,0.0,3.0
19.503111839294434,4095,0.0,0.0,3.0
19.512113094329834,944,0.0,0.0,3.0
19.518783807754517,4095,0.0,0.0,3.0
19.529380559921265,1067,0.0,0.0,3.0
19.537459135055542,4095,0.0,0.0,3.0
19.547459840774536,1476,0.0,0.0,3.0
19.557461500167847,4095,0.0,0.0,3.0
19.567460775375366,1256,0.0,0.0,3.0
19.577460050582886,4095,0.0,0.0,3.0
19.588751792907715,613,0.0,0.0,3.0
19.598795413970947,4095,0.0,0.0,3.0
19.613593101501465,395,0.0,0.0,3.0
19.623436450958252,4095,0.0,0.0,3.0
19.63005495071411,261,0.0,0.0,3.0
19.640068531036377,4095,0.0,0.0,3.0
19.6535382270813,215,0.0,0.0,3.0
19.663573503494263,4095,0.0,0.0,3.0
19.673646450042725,197,0.0,0.0,3.0
19.683902740478516,4095,0.0,0.0,3.0
19.689154386520386,204,0.0,0.0,3.0
19.702837467193604,4095,0.0,0.0,3.0
19.71087121963501,192,0.0,0.0,3.0
19.71842861175537,4095,0.0,0.0,3.0
19.72844409942627,170,0.0,0.0,3.0
19.738443851470947,4095,0.0,0.0,3.0
19.75206446647644,145,0.0,0.0,3.0
19.755054473876953,4095,0.0,0.0,3.0
19.765058517456055,129,0.0,0.0,3.0
19.77505898475647,4095,0.0,0.0,3.0
19.785058736801147,130,0.0,0.0,3.0
19.795058727264404,4095,0.0,0.0,3.0
19.805058479309082,345,0.0,0.0,3.0
19.81505846977234,4095,0.0,0.0,3.0
19.825058460235596,432,0.0,0.0,3.0
19.83505940437317,4095,0.0,0.0,3.0
19.84505844116211,427,0.0,0.0,3.0
19.855060338974,4095,0.0,0.0,3.0
19.865057706832886,402,0.0,0.0,3.0
19.878795862197876,4095,0.0,0.0,3.0
19.893529653549194,352,0.0,0.0,3.0
19.90355610847473,4095,0.0,0.0,3.0
19.9116051197052,305,0.0,0.0,3.0
19.918572187423706,4095,0.0,0.0,3.0
19.926581621170044,214,0.0,0.0,3.0
19.934624910354614,4095,0.0,0.0,3.0
19.945608615875244,23,0.0,0.0,3.0
19.9556086063385,4095,0.0,0.0,3.0
19.965610027313232,0,0.0,0.0,3.0
19.975608587265015,4095,0.0,0.0,3.0
19.98560857772827,0,0.0,0.0,3.0
19.995608806610107,4095,0.0,0.0,3.0
20.013550519943237,0,0.0,0.0,3.0
20.023562908172607,4095,0.0,0.0,3.0
20.03369140625,0,0.0,0.0,3.0
20.034687280654907,4095,0.0,0.0,3.0
20.046850442886353,0,0.0,0.0,3.0
20.06352686882019,4095,0.0,0.0,3.0
20.07353925704956,0,0.0,0.0,3.0
20.08353567123413,4095,0.0,0.0,3.0
20.09370493888855,0,0.0,0.0,3.0
20.103026628494263,4095,0.0,0.0,3.0
20.105329990386963,0,0.0,0.0,3.0
20.117467164993286,4095,0.0,0.0,3.0
20.133342266082764,4095,0.0,0.0,3.0
20.142109870910645,1287,0.0,0.0,3.0
20.15152072906494,4095,0.0,0.0,3.0
20.16353416442871,1422,0.0,0.0,3.0
20.173545598983765,4095,0.0,0.0,3.0
20.18354558944702,2045,0.0,0.0,3.0
20.193546533584595,4095,0.0,0.0,3.0
20.203545570373535,1957,0.0,0.0,3.0
20.21357011795044,4095,0.0,0.0,3.0
20.2235426902771,0,0.0,0.0,3.0
20.233543872833252,0,0.0,0.0,3.0
20.243571519851685,0,0.0,0.0,3.0
20.25366520881653,0,0.0,0.0,3.0
20.254663228988647,0,0.0,0.0,3.0
20.271342992782593,0,0.0,0.0,3.0
20.282433032989502,0,0.0,0.0,3.0
20.292439222335815,0,0.0,0.0,3.0
20.302817583084106,0,0.0,0.0,3.0
20.313235998153687,0,0.0,0.0,3.0
20.31945037841797,0,0.0,0.0,3.0
20.33391261100769,0,0.0,0.0,3.0
20.336484670639038,0,0.0,0.0,3.0
20.35152292251587,0,0.0,0.0,3.0
20.361571073532104,0,0.0,0.0,3.0
20.37356424331665,0,0.0,0.0,3.0
20.38357639312744,0,0.0,0.0,3.0
20.393592357635498,0,0.0,0.0,3.0
20.403586864471436,0,0.0,0.0,3.0
20.413576126098633,0,0.0,0.0,3.0
20.423716068267822,0,0.0,0.0,3.0
20.424712896347046,0,0.0,0.0,3.0
20.43473172187805,0,0.0,0.0,3.0
20.444718837738037,0,0.0,0.0,3.0
20.45471954345703,0,0.0,0.0,3.0
20.473561763763428,0,0.0,0.0,3.0
20.48357319831848,0,0.0,0.0,3.0
20.493574380874634,0,0.0,0.0,3.0
20.50357413291931,0,0.0,0.0,3.0
20.51365637779236,0,0.0,0.0,3.0
20.523568153381348,0,0.0,0.0,3.0
20.532576322555542,0,0.0,0.0,3.0
20.542918920516968,0,0.0,0.0,3.0
20.552967071533203,0,0.0,0.0,3.0
20.562456607818604,0,0.0,0.0,3.0
20.568476676940918,0,0.0,0.0,3.0
20.57648491859436,0,0.0,0.0,3.0
20.584503889083862,0,0.0,0.0,3.0
20.59450364112854,0,0.0,0.0,3.0
20.60450506210327,0,0.0,0.0,3.0
20.614505290985107,0,0.0,0.0,3.0
20.6245059967041,0,0.0,0.0,3.0
20.634505033493042,0,0.0,0.0,3.0
20.6445050239563,0,0.0,0.0,3.0
20.654505014419556,0,0.0,0.0,3.0
20.6645188331604,0,0.0,0.0,3.0
20.67450499534607,0,0.0,0.0,3.0
20.684507846832275,0,0.0,0.0,3.0
20.703551292419434,0,0.0,0.0,3.0
20.713563442230225,0,0.0,0.0,3.0
20.723706007003784,0,0.0,0.0,3.0
20.73369836807251,0,0.0,0.0,3.0
20.74146056175232,0,0.0,0.0,3.0
20.753018140792847,0,0.0,0.0,3.0
20.76102924346924,0,0.0,0.0,3.0
20.768080949783325,0,0.0,0.0,3.0
20.783856868743896,0,0.0,0.0,3.0
20.784990072250366,0,0.0,0.0,3.0
20.795135736465454,0,0.0,0.0,3.0
20.805136919021606,0,0.0,0.0,3.0
20.815137147903442,0,0.0,0.0,3.0
20.825134992599487,0,0.0,0.0,3.0
20.83513569831848,0,0.0,0.0,3.0
20.845135927200317,0,0.0,0.0,3.0
20.85513663291931,0,0.0,0.0,3.0
20.865140199661255,0,0.0,0.0,3.0
20.875135898590088,0,0.0,0.0,3.0
20.885135889053345,0,0.0,0.0,3.0
20.895140409469604,0,0.0,0.0,3.0
20.905137538909912,0,0.0,0.0,3.0
20.915135622024536,0,0.0,0.0,3.0
20.933704137802124,0,0.0,0.0,3.0
20.943552017211914,0,0.0,0.0,3.0
20.9519305229187,0,0.0,0.0,3.0
20.960899353027344,0,0.0,0.0,3.0
20.968446254730225,0,0.0,0.0,3.0
20.97646164894104,0,0.0,0.0,3.0
20.98448610305786,0,0.0,0.0,3.0
20.99448800086975,0,0.0,0.0,3.0
21.004494190216064,0,0.0,0.0,3.0
21.015709161758423,0,0.0,0.0,3.0
21.02571940422058,0,0.0,0.0,3.0
21.035722017288208,0,0.0,0.0,3.0
21.04572057723999,0,0.0,0.0,3.0
21.055720567703247,0,0.0,0.0,3.0
21.06573486328125,0,0.0,0.0,3.0
21.07572078704834,0,0.0,0.0,3.0
21.085720539093018,0,0.0,0.0,3.0
21.095720767974854,0,0.0,0.0,3.0
21.10572052001953,0,0.0,0.0,3.0
21.11778473854065,0,0.0,0.0,3.0
21.12779951095581,0,0.0,0.0,3.0
21.14337396621704,0,0.0,0.0,3.0
21.153300285339355,0,0.0,0.0,3.0
21.159982919692993,0,0.0,0.0,3.0
21.17356014251709,0,0.0,0.0,3.0
21.183708667755127,0,0.0,0.0,3.0
21.18670129776001,0,0.0,0.0,3.0
21.202738046646118,0,0.0,0.0,3.0
21.212742805480957,0,0.0,0.0,3.0
21.222739219665527,0,0.0,0.0,3.0
21.23275327682495,0,0.0,0.0,3.0
21.242799043655396,0,0.0,0.0,3.0
21.243797302246094,0,0.0,0.0,3.0
21.253809928894043,0,0.0,0.0,3.0
21.263805866241455,0,0.0,0.0,3.0
21.273805856704712,0,0.0,0.0,3.0
21.28380584716797,0,0.0,0.0,3.0
21.301852226257324,0,0.0,0.0,3.0
21.311855792999268,0,0.0,0.0,3.0
21.321864128112793,0,0.0,0.0,3.0
21.33185601234436,0,0.0,0.0,3.0
21.341856956481934,0,0.0,0.0,3.0
21.35325026512146,0,0.0,0.0,3.0
21.36306405067444,0,0.0,0.0,3.0
21.368412733078003,0,0.0,0.0,3.0
21.383680820465088,0,0.0,0.0,3.0
21.393751859664917,0,0.0,0.0,3.0
21.40147089958191,0,0.0,0.0,3.0
21.41356325149536,0,0.0,0.0,3.0
21.423579216003418,0,0.0,0.0,3.0
21.433573246002197,0,0.0,0.0,3.0
21.443575859069824,0,0.0,0.0,3.0
21.453575611114502,0,0.0,0.0,3.0
21.463575839996338,0,0.0,0.0,3.0
21.473575353622437,0,0.0,0.0,3.0
21.483572006225586,0,0.0,0.0,3.0
21.493574619293213,0,0.0,0.0,3.0
21.503575801849365,0,0.0,0.0,3.0
21.513575553894043,0,0.0,0.0,3.0
21.52357578277588,0,0.0,0.0,3.0
21.533576011657715,0,0.0,0.0,3.0
21.543575525283813,0,0.0,0.0,3.0
21.553653478622437,0,0.0,0.0,3.0
21.56356644630432,0,0.0,0.0,3.0
21.570467710494995,0,0.0,0.0,3.0
21.583643436431885,0,0.0,0.0,3.0
21.586730480194092,0,0.0,0.0,3.0
21.600431442260742,0,0.0,0.0,3.0
21.61353826522827,0,0.0,0.0,3.0
21.623573780059814,0,0.0,0.0,3.0
21.633546829223633,0,0.0,0.0,3.0
21.643550634384155,0,0.0,0.0,3.0
21.653550624847412,0,0.0,0.0,3.0
21.663551568984985,0,0.0,0.0,3.0
21.67354726791382,0,0.0,0.0,3.0
21.683560848236084,0,0.0,0.0,3.0
21.693567276000977,0,0.0,0.0,3.0
21.703548192977905,0,0.0,0.0,3.0
21.713652849197388,0,0.0,0.0,3.0
21.714649200439453,0,0.0,0.0,3.0
21.724659204483032,0,0.0,0.0,3.0
21.734658241271973,0,0.0,0.0,3.0
21.75030517578125,0,0.0,0.0,3.0
21.763241291046143,0,0.0,0.0,3.0
21.769304513931274,0,0.0,0.0,3.0
21.783688068389893,0,0.0,0.0,3.0
21.793731451034546,0,0.0,0.0,3.0
21.801419734954834,0,0.0,0.0,3.0
21.812196254730225,0,0.0,0.0,3.0
21.818213939666748,0,0.0,0.0,3.0
21.828219413757324,0,0.0,0.0,3.0
21.83823275566101,0,0.0,0.0,3.0
21.848217964172363,0,0.0,0.0,3.0
21.85821795463562,0,0.0,0.0,3.0
21.87356162071228,0,0.0,0.0,3.0
21.88357424736023,0,0.0,0.0,3.0
21.89357018470764,0,0.0,0.0,3.0
21.903573989868164,0,0.0,0.0,3.0
21.913573741912842,0,0.0,0.0,3.0
21.923573970794678,0,0.0,0.0,3.0
21.93356990814209,0,0.0,0.0,3.0
21.943572759628296,0,0.0,0.0,3.0
21.95364212989807,0,0.0,0.0,3.0
21.963565587997437,0,0.0,0.0,3.0
21.968071937561035,0,0.0,0.0,3.0
21.977041482925415,0,0.0,0.0,3.0
21.986999034881592,0,0.0,0.0,3.0
22.000391960144043,0,0.0,0.0,3.0
22.011371850967407,0,0.0,0.0,3.0
22.023560762405396,0,0.0,0.0,3.0
22.033572673797607,0,0.0,0.0,3.0
22.043704509735107,0,0.0,0.0,3.0
22.04470157623291,0,0.0,0.0,3.0
22.05471706390381,0,0.0,0.0,3.0
22.064717292785645,0,0.0,0.0,3.0
22.074717044830322,0,0.0,0.0,3.0
22.084721565246582,0,0.0,0.0,3.0
22.094717264175415,0,0.0,0.0,3.0
22.10471820831299,0,0.0,0.0,3.0
22.114715814590454,0,0.0,0.0,3.0
22.12471914291382,0,0.0,0.0,3.0
22.134718894958496,0,0.0,0.0,3.0
22.1447172164917,0,0.0,0.0,3.0
22.15750765800476,0,0.0,0.0,3.0
22.1733455657959,0,0.0,0.0,3.0
22.183627128601074,0,0.0,0.0,3.0
22.193709135055542,0,0.0,0.0,3.0
22.203534603118896,0,0.0,0.0,3.0
22.211549520492554,0,0.0,0.0,3.0
22.219577074050903,0,0.0,0.0,3.0
22.229578018188477,0,0.0,0.0,3.0
22.239577770233154,0,0.0,0.0,3.0
22.24957776069641,0,0.0,0.0,3.0
22.259577751159668,0,0.0,0.0,3.0
22.269577980041504,0,0.0,0.0,3.0
22.28356099128723,0,0.0,0.0,3.0
22.29357361793518,0,0.0,0.0,3.0
22.3035728931427,0,0.0,0.0,3.0
22.303828477859497,0,0.0,0.0,3.0
22.314791202545166,0,0.0,0.0,3.0
22.330838680267334,0,0.0,0.0,3.0
22.340842485427856,0,0.0,0.0,3.0
22.35084366798401,0,0.0,0.0,3.0
22.360841989517212,0,0.0,0.0,3.0
22.3732488155365,0,0.0,0.0,3.0
22.383588790893555,0,0.0,0.0,3.0
22.38715434074402,0,0.0,0.0,3.0
22.40359354019165,0,0.0,0.0,3.0
22.411654949188232,0,0.0,0.0,3.0
22.418883562088013,0,0.0,0.0,3.0
22.433614253997803,0,0.0,0.0,3.0
22.434598207473755,0,0.0,0.0,3.0
22.444607257843018,0,0.0,0.0,3.0
22.454607248306274,0,0.0,0.0,3.0
22.46460771560669,0,0.0,0.0,3.0
22.474607467651367,0,0.0,0.0,3.0
22.484607458114624,0,0.0,0.0,3.0
22.494627714157104,0,0.0,0.0,3.0
22.504608392715454,0,0.0,0.0,3.0
22.514607429504395,0,0.0,0.0,3.0
22.52460741996765,0,0.0,0.0,3.0
22.534608364105225,0,0.0,0.0,3.0
22.544612407684326,0,0.0,0.0,3.0
22.554607391357422,0,0.0,0.0,3.0
22.5646071434021,0,0.0,0.0,3.0
22.583436250686646,0,0.0,0.0,3.0
22.591569662094116,0,0.0,0.0,3.0
22.6035578250885,0,0.0,0.0,3.0
22.61157202720642,0,0.0,0.0,3.0
22.618043899536133,0,0.0,0.0,3.0
22.633578538894653,0,0.0,0.0,3.0
22.642606496810913,0,0.0,0.0,3.0
22.652607440948486,0,0.0,0.0,3.0
22.662607669830322,0,0.0,0.0,3.0
22.672607898712158,0,0.0,0.0,3.0
22.682607889175415,0,0.0,0.0,3.0
22.692607402801514,0,0.0,0.0,3.0
22.70260787010193,0,0.0,0.0,3.0
22.71262264251709,0,0.0,0.0,3.0
22.723561763763428,0,0.0,0.0,3.0
22.73357367515564,0,0.0,0.0,3.0
22.74357271194458,0,0.0,0.0,3.0
22.753573894500732,0,0.0,0.0,3.0
22.76357388496399,0,0.0,0.0,3.0
22.773592472076416,0,0.0,0.0,3.0
22.783570051193237,0,0.0,0.0,3.0
22.79366111755371,0,0.0,0.0,3.0
22.803378582000732,0,0.0,0.0,3.0
22.808547258377075,0,0.0,0.0,3.0
22.82034969329834,0,0.0,0.0,3.0
22.833393812179565,0,0.0,0.0,3.0
22.843339681625366,0,0.0,0.0,3.0
22.851044178009033,0,0.0,0.0,3.0
22.86105704307556,0,0.0,0.0,3.0
22.87105917930603,0,0.0,0.0,3.0
22.881059408187866,0,0.0,0.0,3.0
22.891058683395386,0,0.0,0.0,3.0
22.902472972869873,0,0.0,0.0,3.0
22.91248917579651,0,0.0,0.0,3.0
22.923550128936768,0,0.0,0.0,3.0
22.933562517166138,0,0.0,0.0,3.0
22.943562746047974,0,0.0,0.0,3.0
22.95356249809265,0,0.0,0.0,3.0
22.963561534881592,0,0.0,0.0,3.0
22.973562955856323,0,0.0,0.0,3.0
22.976038455963135,0,0.0,0.0,3.0
22.986045837402344,0,0.0,0.0,3.0
23.003273487091064,0,0.0,0.0,3.0
23.012882232666016,0,0.0,0.0,3.0
23.023221492767334,0,0.0,0.0,3.0
23.03333568572998,0,0.0,0.0,3.0
23.036328554153442,0,0.0,0.0,3.0
23.051355600357056,0,0.0,0.0,3.0
23.059370756149292,0,0.0,0.0,3.0
23.06740689277649,0,0.0,0.0,3.0
23.078391313552856,0,0.0,0.0,3.0
23.088390111923218,0,0.0,0.0,3.0
23.09839129447937,0,0.0,0.0,3.0
23.108391046524048,0,0.0,0.0,3.0
23.123550176620483,0,0.0,0.0,3.0
23.133561611175537,0,0.0,0.0,3.0
23.1346333026886,0,0.0,0.0,3.0
23.153550386428833,0,0.0,0.0,3.0
23.16307783126831,0,0.0,0.0,3.0
23.173084020614624,0,0.0,0.0,3.0
23.183109283447266,0,0.0,0.0,3.0
23.193100929260254,0,0.0,0.0,3.0
23.203083753585815,0,0.0,0.0,3.0
23.21355175971985,0,0.0,0.0,3.0
23.220672369003296,0,0.0,0.0,3.0
23.228681325912476,0,0.0,0.0,3.0
23.243753910064697,0,0.0,0.0,3.0
23.25249743461609,0,0.0,0.0,3.0
23.260524034500122,0,0.0,0.0,3.0
23.26793122291565,0,0.0,0.0,3.0
23.283453226089478,0,0.0,0.0,3.0
23.2844717502594,0,0.0,0.0,3.0
23.29447364807129,0,0.0,0.0,3.0
23.30458927154541,0,0.0,0.0,3.0
23.317033767700195,0,0.0,0.0,3.0
23.327040910720825,0,0.0,0.0,3.0
23.337040424346924,0,0.0,0.0,3.0
23.347039937973022,0,0.0,0.0,3.0
23.36346459388733,0,0.0,0.0,3.0
23.373491525650024,0,0.0,0.0,3.0
23.383710145950317,0,0.0,0.0,3.0
23.384695529937744,0,0.0,0.0,3.0
23.394701957702637,0,0.0,0.0,3.0
23.40470266342163,0,0.0,0.0,3.0
23.42289447784424,0,0.0,0.0,3.0
23.4333016872406,0,0.0,0.0,3.0
23.436919927597046,0,0.0,0.0,3.0
23.45088243484497,0,0.0,0.0,3.0
23.458897829055786,0,0.0,0.0,3.0
23.46865677833557,0,0.0,0.0,3.0
23.483415126800537,0,0.0,0.0,3.0
23.48442816734314,0,0.0,0.0,3.0
23.494439840316772,0,0.0,0.0,3.0
23.504439115524292,0,0.0,0.0,3.0
23.51443886756897,0,0.0,0.0,3.0
23.524438858032227,0,0.0,0.0,3.0
23.534438848495483,0,0.0,0.0,3.0
23.54443883895874,0,0.0,0.0,3.0
23.554438829421997,0,0.0,0.0,3.0
23.564439296722412,0,0.0,0.0,3.0
23.5744469165802,0,0.0,0.0,3.0
23.58444571495056,0,0.0,0.0,3.0
23.59443998336792,0,0.0,0.0,3.0
23.60443878173828,0,0.0,0.0,3.0
23.614439964294434,0,0.0,0.0,3.0
23.624438762664795,0,0.0,0.0,3.0
23.64346981048584,0,0.0,0.0,3.0
23.653270721435547,0,0.0,0.0,3.0
23.66124725341797,0,0.0,0.0,3.0
23.667542695999146,0,0.0,0.0,3.0
23.683618783950806,0,0.0,0.0,3.0
23.684728860855103,0,0.0,0.0,3.0
23.694744110107422,0,0.0,0.0,3.0
23.704745531082153,0,0.0,0.0,3.0
23.714778423309326,0,0.0,0.0,3.0
23.724745273590088,0,0.0,0.0,3.0
23.73474383354187,0,0.0,0.0,3.0
23.744743585586548,0,0.0,0.0,3.0
23.75475573539734,0,0.0,0.0,3.0
23.773561000823975,0,0.0,0.0,3.0
23.78356957435608,0,0.0,0.0,3.0
23.793569803237915,0,0.0,0.0,3.0
23.80357336997986,0,0.0,0.0,3.0
23.813573360443115,0,0.0,0.0,3.0
23.823569536209106,0,0.0,0.0,3.0
23.833552598953247,0,0.0,0.0,3.0
23.84359645843506,0,0.0,0.0,3.0
23.852802276611328,0,0.0,0.0,3.0
23.855321884155273,0,0.0,0.0,3.0
23.873212099075317,0,0.0,0.0,3.0
23.883158206939697,0,0.0,0.0,3.0
23.893317461013794,0,0.0,0.0,3.0
23.90179967880249,0,0.0,0.0,3.0
23.91356062889099,0,0.0,0.0,3.0
23.923571825027466,0,0.0,0.0,3.0
23.933571815490723,0,0.0,0.0,3.0
23.943591356277466,0,0.0,0.0,3.0
23.953572988510132,0,0.0,0.0,3.0
23.963569164276123,0,0.0,0.0,3.0
23.973572731018066,0,0.0,0.0,3.0
23.983572721481323,0,0.0,0.0,3.0
23.99357295036316,0,0.0,0.0,3.0
24.0035502910614,0,0.0,0.0,3.0
24.01356267929077,0,0.0,0.0,3.0
24.023569345474243,0,0.0,0.0,3.0
24.033568620681763,0,0.0,0.0,3.0
24.043558835983276,0,0.0,0.0,3.0
24.05369758605957,0,0.0,0.0,3.0
24.06350088119507,0,0.0,0.0,3.0
24.068033695220947,0,0.0,0.0,3.0
24.083100080490112,0,0.0,0.0,3.0
24.086092472076416,0,0.0,0.0,3.0
24.100771188735962,0,0.0,0.0,3.0
24.113561153411865,0,0.0,0.0,3.0
24.123573541641235,0,0.0,0.0,3.0
24.133569955825806,0,0.0,0.0,3.0
24.140424013137817,0,0.0,0.0,3.0
24.146156549453735,0,0.0,0.0,3.0
24.156264066696167,0,0.0,0.0,3.0
24.167465686798096,0,0.0,0.0,3.0
24.177472829818726,0,0.0,0.0,3.0
24.187471866607666,0,0.0,0.0,3.0
24.19747257232666,0,0.0,0.0,3.0
24.207473278045654,0,0.0,0.0,3.0
24.223549127578735,0,0.0,0.0,3.0
24.233560800552368,0,0.0,0.0,3.0
24.243740558624268,0,0.0,0.0,3.0
24.253342866897583,0,0.0,0.0,3.0
24.258328437805176,0,0.0,0.0,3.0
24.26999258995056,0,0.0,0.0,3.0
24.283040046691895,0,0.0,0.0,3.0
24.293174743652344,0,0.0,0.0,3.0
24.301188945770264,0,0.0,0.0,3.0
24.313340187072754,0,0.0,0.0,3.0
24.323405742645264,0,0.0,0.0,3.0
24.33341932296753,0,0.0,0.0,3.0
24.343395233154297,0,0.0,0.0,3.0
24.353415489196777,0,0.0,0.0,3.0
24.363463163375854,0,0.0,0.0,3.0
24.373578786849976,0,0.0,0.0,3.0
24.381372690200806,0,0.0,0.0,3.0
24.39362645149231,0,0.0,0.0,3.0
24.403767347335815,0,0.0,0.0,3.0
24.40477967262268,0,0.0,0.0,3.0
24.41492533683777,0,0.0,0.0,3.0
24.424925327301025,0,0.0,0.0,3.0
24.434925317764282,0,0.0,0.0,3.0
24.4533052444458,0,0.0,0.0,3.0
24.4600510597229,0,0.0,0.0,3.0
24.467467308044434,0,0.0,0.0,3.0
24.483113527297974,0,0.0,0.0,3.0
24.492167711257935,0,0.0,0.0,3.0
24.50022554397583,0,0.0,0.0,3.0
24.51390814781189,0,0.0,0.0,3.0
24.523919105529785,0,0.0,0.0,3.0
24.533918380737305,0,0.0,0.0,3.0
24.543915271759033,0,0.0,0.0,3.0
24.553916931152344,0,0.0,0.0,3.0
24.56391668319702,0,0.0,0.0,3.0
24.5739164352417,0,0.0,0.0,3.0
24.583916425704956,0,0.0,0.0,3.0
24.593916654586792,0,0.0,0.0,3.0
24.593916654586792,0,0.0,0.0,3.0
24.60391640663147,0,0.0,0.0,3.0
24.613913536071777,0,0.0,0.0,3.0
24.623912572860718,0,0.0,0.0,3.0
24.633913040161133,0,0.0,0.0,3.0
24.64391303062439,0,0.0,0.0,3.0
24.66332769393921,0,0.0,0.0,3.0
24.670099020004272,0,0.0,0.0,3.0
24.68325662612915,0,0.0,0.0,3.0
24.693283319473267,0,0.0,0.0,3.0
24.70069932937622,0,0.0,0.0,3.0
24.71356225013733,0,0.0,0.0,3.0
24.72357749938965,0,0.0,0.0,3.0
24.733577251434326,0,0.0,0.0,3.0
24.743576526641846,0,0.0,0.0,3.0
24.75357747077942,0,0.0,0.0,3.0
24.76375722885132,0,0.0,0.0,3.0
24.764753341674805,0,0.0,0.0,3.0
24.77476191520691,0,0.0,0.0,3.0
24.78476095199585,0,0.0,0.0,3.0
24.794788122177124,0,0.0,0.0,3.0
24.804762601852417,0,0.0,0.0,3.0
24.81476140022278,0,0.0,0.0,3.0
24.824764013290405,0,0.0,0.0,3.0
24.83476161956787,0,0.0,0.0,3.0
24.84476137161255,0,0.0,0.0,3.0
24.8547625541687,0,0.0,0.0,3.0
24.86476230621338,0,0.0,0.0,3.0
24.883636236190796,0,0.0,0.0,3.0
24.89178776741028,0,0.0,0.0,3.0
24.902254343032837,0,0.0,0.0,3.0
24.91035032272339,0,0.0,0.0,3.0
24.917516469955444,0,0.0,0.0,3.0
24.933046340942383,0,0.0,0.0,3.0
24.934065103530884,0,0.0,0.0,3.0
24.944066286087036,0,0.0,0.0,3.0
24.95406746864319,0,0.0,0.0,3.0
24.964067220687866,0,0.0,0.0,3.0
24.974066495895386,0,0.0,0.0,3.0
24.984066009521484,0,0.0,0.0,3.0
24.994067192077637,0,0.0,0.0,3.0
25.004066944122314,0,0.0,0.0,3.0
25.014066219329834,0,0.0,0.0,3.0
25.024067401885986,0,0.0,0.0,3.0
25.034067153930664,0,0.0,0.0,3.0
25.0440776348114,0,0.0,0.0,3.0
25.05639886856079,0,0.0,0.0,3.0
25.06641459465027,0,0.0,0.0,3.0
25.076414585113525,0,0.0,0.0,3.0
25.093358993530273,0,0.0,0.0,3.0
25.101638317108154,0,0.0,0.0,3.0
25.11097741127014,0,0.0,0.0,3.0
25.119197607040405,0,0.0,0.0,3.0
25.132877111434937,0,0.0,0.0,3.0
25.134963274002075,0,0.0,0.0,3.0
25.153560400009155,0,0.0,0.0,3.0
25.163573741912842,0,0.0,0.0,3.0
25.173571825027466,0,0.0,0.0,3.0
25.183573007583618,0,0.0,0.0,3.0
25.193572759628296,0,0.0,0.0,3.0
25.20357370376587,0,0.0,0.0,3.0
25.21357274055481,0,0.0,0.0,3.0
25.22357702255249,0,0.0,0.0,3.0
25.233572721481323,0,0.0,0.0,3.0
25.24357295036316,0,0.0,0.0,3.0
25.25357151031494,0,0.0,0.0,3.0
25.263571739196777,0,0.0,0.0,3.0
25.27357316017151,0,0.0,0.0,3.0
25.283572912216187,0,0.0,0.0,3.0
25.293651580810547,0,0.0,0.0,3.0
25.303242206573486,0,0.0,0.0,3.0
25.306928396224976,0,0.0,0.0,3.0
25.317514657974243,0,0.0,0.0,3.0
25.33287239074707,0,0.0,0.0,3.0
25.343032121658325,0,0.0,0.0,3.0
25.35206699371338,0,0.0,0.0,3.0
25.36207342147827,0,0.0,0.0,3.0
25.373549938201904,0,0.0,0.0,3.0
25.383562564849854,0,0.0,0.0,3.0
25.39374804496765,0,0.0,0.0,3.0
25.399858474731445,0,0.0,0.0,3.0
25.409863471984863,0,0.0,0.0,3.0
25.4198637008667,0,0.0,0.0,3.0
25.429863691329956,0,0.0,0.0,3.0
25.439863443374634,0,0.0,0.0,3.0
25.449877738952637,0,0.0,0.0,3.0
25.463523626327515,0,0.0,0.0,3.0
25.473536014556885,0,0.0,0.0,3.0
25.483532428741455,0,0.0,0.0,3.0
25.4935359954834,0,0.0,0.0,3.0
25.50361704826355,0,0.0,0.0,3.0
25.512187242507935,0,0.0,0.0,3.0
25.516109943389893,0,0.0,0.0,3.0
25.532981395721436,0,0.0,0.0,3.0
25.541557550430298,0,0.0,0.0,3.0
25.55069661140442,0,0.0,0.0,3.0
25.560704946517944,0,0.0,0.0,3.0
25.570705890655518,0,0.0,0.0,3.0
25.580704927444458,0,0.0,0.0,3.0
25.59070587158203,0,0.0,0.0,3.0
25.60070490837097,0,0.0,0.0,3.0
25.61070489883423,0,0.0,0.0,3.0
25.623535871505737,0,0.0,0.0,3.0
25.633548259735107,0,0.0,0.0,3.0
25.643547773361206,0,0.0,0.0,3.0
25.653533220291138,0,0.0,0.0,3.0
25.663546085357666,0,0.0,0.0,3.0
25.67354154586792,0,0.0,0.0,3.0
25.683545351028442,0,0.0,0.0,3.0
25.693559408187866,0,0.0,0.0,3.0
25.703558921813965,0,0.0,0.0,3.0
25.714069366455078,0,0.0,0.0,3.0
25.722688913345337,0,0.0,0.0,3.0
25.732718229293823,0,0.0,0.0,3.0
25.73579216003418,0,0.0,0.0,3.0
25.751437425613403,0,0.0,0.0,3.0
25.759448051452637,0,0.0,0.0,3.0
25.768213033676147,0,0.0,0.0,3.0
25.783798456192017,0,0.0,0.0,3.0
25.783798456192017,0,0.0,0.0,3.0
25.794904708862305,0,0.0,0.0,3.0
25.80491614341736,0,0.0,0.0,3.0
25.815187692642212,0,0.0,0.0,3.0
25.826179027557373,0,0.0,0.0,3.0
25.84353518486023,0,0.0,0.0,3.0
25.85354733467102,0,0.0,0.0,3.0
25.863569736480713,0,0.0,0.0,3.0
25.8735454082489,0,0.0,0.0,3.0
25.88355827331543,0,0.0,0.0,3.0
25.893547296524048,0,0.0,0.0,3.0
25.903547763824463,0,0.0,0.0,3.0
25.91366982460022,0,0.0,0.0,3.0
25.91981053352356,0,0.0,0.0,3.0
25.93347954750061,0,0.0,0.0,3.0
25.938143968582153,0,0.0,0.0,3.0
25.9461567401886,0,0.0,0.0,3.0
25.96047616004944,0,0.0,0.0,3.0
25.9681613445282,0,0.0,0.0,3.0
25.982712030410767,0,0.0,0.0,3.0
25.99273419380188,0,0.0,0.0,3.0
26.001765489578247,0,0.0,0.0,3.0
26.011763095855713,0,0.0,0.0,3.0
26.021764278411865,0,0.0,0.0,3.0
26.031794548034668,0,0.0,0.0,3.0
26.041763067245483,0,0.0,0.0,3.0
26.053558826446533,0,0.0,0.0,3.0
26.06357192993164,0,0.0,0.0,3.0
26.073567867279053,0,0.0,0.0,3.0
26.0835702419281,0,0.0,0.0,3.0
26.08468246459961,0,0.0,0.0,3.0
26.094797372817993,0,0.0,0.0,3.0
26.10479760169983,0,0.0,0.0,3.0
26.114797353744507,0,0.0,0.0,3.0
26.124797344207764,0,0.0,0.0,3.0
26.134827136993408,0,0.0,0.0,3.0
26.153539657592773,0,0.0,0.0,3.0
26.16065812110901,0,0.0,0.0,3.0
26.16818881034851,0,0.0,0.0,3.0
26.183608055114746,0,0.0,0.0,3.0
26.192711114883423,0,0.0,0.0,3.0
26.200761079788208,0,0.0,0.0,3.0
26.213534116744995,0,0.0,0.0,3.0
26.223545789718628,0,0.0,0.0,3.0
26.233546495437622,0,0.0,0.0,3.0
26.243545532226562,0,0.0,0.0,3.0
26.25354528427124,0,0.0,0.0,3.0
26.263546228408813,0,0.0,0.0,3.0
26.27354645729065,0,0.0,0.0,3.0
26.283557415008545,0,0.0,0.0,3.0
26.29366159439087,0,0.0,0.0,3.0
26.29465889930725,0,0.0,0.0,3.0
26.304668426513672,0,0.0,0.0,3.0
26.31467056274414,0,0.0,0.0,3.0
26.32580041885376,0,0.0,0.0,3.0
26.33580183982849,0,0.0,0.0,3.0
26.34580159187317,0,0.0,0.0,3.0
26.35580325126648,0,0.0,0.0,3.0
26.373398780822754,0,0.0,0.0,3.0
26.38274073600769,0,0.0,0.0,3.0
26.385797262191772,0,0.0,0.0,3.0
26.40032386779785,0,0.0,0.0,3.0
26.408331155776978,0,0.0,0.0,3.0
26.418078660964966,0,0.0,0.0,3.0
26.43356227874756,0,0.0,0.0,3.0
26.434415817260742,0,0.0,0.0,3.0
26.445531845092773,0,0.0,0.0,3.0
26.45554804801941,0,0.0,0.0,3.0
26.465548038482666,0,0.0,0.0,3.0
26.477022409439087,0,0.0,0.0,3.0
26.487199306488037,0,0.0,0.0,3.0
26.4971661567688,0,0.0,0.0,3.0
26.50716495513916,0,0.0,0.0,3.0
26.52354907989502,0,0.0,0.0,3.0
26.53356146812439,0,0.0,0.0,3.0
26.543561220169067,0,0.0,0.0,3.0
26.544968843460083,0,0.0,0.0,3.0
26.55496644973755,0,0.0,0.0,3.0
26.564966440200806,0,0.0,0.0,3.0
26.583625078201294,0,0.0,0.0,3.0
26.59160017967224,0,0.0,0.0,3.0
26.601942777633667,0,0.0,0.0,3.0
26.60994791984558,0,0.0,0.0,3.0
26.617294549942017,0,0.0,0.0,3.0
26.633668422698975,0,0.0,0.0,3.0
26.634666919708252,0,0.0,0.0,3.0
26.644675493240356,0,0.0,0.0,3.0
26.6546733379364,0,0.0,0.0,3.0
26.664689540863037,0,0.0,0.0,3.0
26.674673318862915,0,0.0,0.0,3.0
26.68467354774475,0,0.0,0.0,3.0
26.69467329978943,0,0.0,0.0,3.0
26.704673528671265,0,0.0,0.0,3.0
26.714673280715942,0,0.0,0.0,3.0
26.724681854248047,0,0.0,0.0,3.0
26.734673738479614,0,0.0,0.0,3.0
26.744673252105713,0,0.0,0.0,3.0
26.754673719406128,0,0.0,0.0,3.0
26.764674425125122,0,0.0,0.0,3.0
26.77467441558838,0,0.0,0.0,3.0
26.784674644470215,0,0.0,0.0,3.0
26.803614616394043,0,0.0,0.0,3.0
26.80923819541931,0,0.0,0.0,3.0
26.8173348903656,0,0.0,0.0,3.0
26.83262586593628,0,0.0,0.0,3.0
26.842000722885132,0,0.0,0.0,3.0
26.851027488708496,0,0.0,0.0,3.0
26.86103320121765,0,0.0,0.0,3.0
26.871034622192383,0,0.0,0.0,3.0
26.881033420562744,0,0.0,0.0,3.0
26.89103364944458,0,0.0,0.0,3.0
26.90103530883789,0,0.0,0.0,3.0
26.911033630371094,0,0.0,0.0,3.0
26.92249822616577,0,0.0,0.0,3.0
26.93250274658203,0,0.0,0.0,3.0
26.942543506622314,0,0.0,0.0,3.0
26.949362754821777,0,0.0,0.0,3.0
26.960556745529175,0,0.0,0.0,3.0
26.970568895339966,0,0.0,0.0,3.0
26.980567693710327,0,0.0,0.0,3.0
26.99056887626648,0,0.0,0.0,3.0
27.00056767463684,0,0.0,0.0,3.0
27.01227569580078,0,0.0,0.0,3.0
27.023764610290527,0,0.0,0.0,3.0
27.03258442878723,0,0.0,0.0,3.0
27.035718202590942,0,0.0,0.0,3.0
27.050230741500854,0,0.0,0.0,3.0
27.058247089385986,0,0.0,0.0,3.0
27.067973375320435,0,0.0,0.0,3.0
27.0835599899292,0,0.0,0.0,3.0
27.0835599899292,0,0.0,0.0,3.0
27.0935697555542,0,0.0,0.0,3.0
27.103569269180298,0,0.0,0.0,3.0
27.123571157455444,0,0.0,0.0,3.0
27.123571157455444,0,0.0,0.0,3.0
27.133569478988647,0,0.0,0.0,3.0
27.153568506240845,0,0.0,0.0,3.0
27.153568506240845,0,0.0,0.0,3.0
27.163570880889893,0,0.0,0.0,3.0
27.175432682037354,0,0.0,0.0,3.0
27.18640661239624,0,0.0,0.0,3.0
27.1964054107666,0,0.0,0.0,3.0
27.206405639648438,0,0.0,0.0,3.0
27.22360920906067,0,0.0,0.0,3.0
27.232516527175903,0,0.0,0.0,3.0
27.243107080459595,0,0.0,0.0,3.0
27.251537799835205,0,0.0,0.0,3.0
27.25955843925476,0,0.0,0.0,3.0
27.267966985702515,0,0.0,0.0,3.0
27.277983903884888,0,0.0,0.0,3.0
27.28800940513611,0,0.0,0.0,3.0
27.297982692718506,0,0.0,0.0,3.0
27.307981252670288,0,0.0,0.0,3.0
27.317983865737915,0,0.0,0.0,3.0
27.329110860824585,0,0.0,0.0,3.0
27.343533992767334,0,0.0,0.0,3.0
27.343533992767334,0,0.0,0.0,3.0
27.353543758392334,0,0.0,0.0,3.0
27.363544702529907,0,0.0,0.0,3.0
27.373544692993164,0,0.0,0.0,3.0
27.383543491363525,0,0.0,0.0,3.0
27.393550872802734,0,0.0,0.0,3.0
27.403550148010254,0,0.0,0.0,3.0
27.413543701171875,0,0.0,0.0,3.0
27.423551559448242,0,0.0,0.0,3.0
27.44170570373535,0,0.0,0.0,3.0
27.451859951019287,0,0.0,0.0,3.0
27.45858597755432,0,0.0,0.0,3.0
27.466845750808716,0,0.0,0.0,3.0
27.48267698287964,0,0.0,0.0,3.0
27.483675241470337,0,0.0,0.0,3.0
27.49503755569458,0,0.0,0.0,3.0
27.505184173583984,0,0.0,0.0,3.0
27.515210151672363,0,0.0,0.0,3.0
27.525184154510498,0,0.0,0.0,3.0
27.535184144973755,0,0.0,0.0,3.0
27.54518413543701,0,0.0,0.0,3.0
27.555185317993164,0,0.0,0.0,3.0
27.572609424591064,0,0.0,0.0,3.0
27.572609424591064,0,0.0,0.0,3.0
27.582615852355957,0,0.0,0.0,3.0
27.602614164352417,0,0.0,0.0,3.0
27.602614164352417,0,0.0,0.0,3.0
27.62262487411499,0,0.0,0.0,3.0
27.632618188858032,0,0.0,0.0,3.0
27.642629861831665,0,0.0,0.0,3.0
27.642629861831665,0,0.0,0.0,3.0
27.66195297241211,0,0.0,0.0,3.0
27.66673183441162,0,0.0,0.0,3.0
27.682437896728516,0,0.0,0.0,3.0
27.68657350540161,0,0.0,0.0,3.0
27.700088024139404,0,0.0,0.0,3.0
27.710116624832153,0,0.0,0.0,3.0
27.72011685371399,0,0.0,0.0,3.0
27.730117797851562,0,0.0,0.0,3.0
27.740118741989136,0,0.0,0.0,3.0
27.750117778778076,0,0.0,0.0,3.0
27.760116815567017,0,0.0,0.0,3.0
27.772602558135986,0,0.0,0.0,3.0
27.772602558135986,0,0.0,0.0,3.0
27.79260802268982,0,0.0,0.0,3.0
27.802620887756348,0,0.0,0.0,3.0
27.812620162963867,0,0.0,0.0,3.0
27.822607040405273,0,0.0,0.0,3.0
27.83260750770569,0,0.0,0.0,3.0
27.83260750770569,0,0.0,0.0,3.0
27.85260844230652,0,0.0,0.0,3.0
27.86260724067688,0,0.0,0.0,3.0
27.86260724067688,0,0.0,0.0,3.0
27.882301568984985,0,0.0,0.0,3.0
27.889264345169067,0,0.0,0.0,3.0
27.90155792236328,0,0.0,0.0,3.0
27.90956473350525,0,0.0,0.0,3.0
27.91593098640442,0,0.0,0.0,3.0
27.924856662750244,0,0.0,0.0,3.0
27.942614555358887,0,0.0,0.0,3.0
27.942614555358887,0,0.0,0.0,3.0
27.952619314193726,0,0.0,0.0,3.0
27.969237804412842,0,0.0,0.0,3.0
27.979241609573364,0,0.0,0.0,3.0
27.99258279800415,0,0.0,0.0,3.0
28.00258755683899,0,0.0,0.0,3.0
28.012587547302246,0,0.0,0.0,3.0
28.022587537765503,0,0.0,0.0,3.0
28.03258776664734,0,0.0,0.0,3.0
28.03258776664734,0,0.0,0.0,3.0
28.04258894920349,0,0.0,0.0,3.0
28.052587747573853,0,0.0,0.0,3.0
28.06258749961853,0,0.0,0.0,3.0
28.082594633102417,0,0.0,0.0,3.0
28.082594633102417,0,0.0,0.0,3.0
28.101756811141968,0,0.0,0.0,3.0
28.109718084335327,0,0.0,0.0,3.0
28.119186639785767,0,0.0,0.0,3.0
28.13269591331482,0,0.0,0.0,3.0
28.141632795333862,0,0.0,0.0,3.0
28.149632930755615,0,0.0,0.0,3.0
28.157661199569702,0,0.0,0.0,3.0
28.167662143707275,0,0.0,0.0,3.0
28.177662134170532,0,0.0,0.0,3.0
28.187695026397705,0,0.0,0.0,3.0
28.197662115097046,0,0.0,0.0,3.0
28.21260952949524,0,0.0,0.0,3.0
28.222612857818604,0,0.0,0.0,3.0
28.222612857818604,0,0.0,0.0,3.0
28.234787225723267,0,0.0,0.0,3.0
28.24566411972046,0,0.0,0.0,3.0
28.255667209625244,0,0.0,0.0,3.0
28.265682220458984,0,0.0,0.0,3.0
28.275665044784546,0,0.0,0.0,3.0
28.285683155059814,0,0.0,0.0,3.0
28.29566478729248,0,0.0,0.0,3.0
28.305665016174316,0,0.0,0.0,3.0
28.31930422782898,0,0.0,0.0,3.0
28.332781314849854,0,0.0,0.0,3.0
28.334776878356934,0,0.0,0.0,3.0
28.349997997283936,0,0.0,0.0,3.0
28.35801339149475,0,0.0,0.0,3.0
28.36679196357727,0,0.0,0.0,3.0
28.382609605789185,0,0.0,0.0,3.0
28.392615795135498,0,0.0,0.0,3.0
28.402612924575806,0,0.0,0.0,3.0
28.412615537643433,0,0.0,0.0,3.0
28.42261290550232,0,0.0,0.0,3.0
28.432615756988525,0,0.0,0.0,3.0
28.432615756988525,0,0.0,0.0,3.0
28.452613830566406,0,0.0,0.0,3.0
28.462612867355347,0,0.0,0.0,3.0
28.472667694091797,0,0.0,0.0,3.0
28.479323863983154,0,0.0,0.0,3.0
28.489327669143677,0,0.0,0.0,3.0
28.499329090118408,0,0.0,0.0,3.0
28.509328842163086,0,0.0,0.0,3.0
28.519327640533447,0,0.0,0.0,3.0
28.531715869903564,0,0.0,0.0,3.0
28.53904914855957,0,0.0,0.0,3.0
28.547085285186768,0,0.0,0.0,3.0
28.5622456073761,0,0.0,0.0,3.0
28.565704822540283,4095,0.0,0.0,3.0
28.583717584609985,4095,0.0,0.0,3.0
28.59267783164978,4095,0.0,0.0,3.0
28.603943586349487,4095,0.0,0.0,3.0
28.613951444625854,4095,0.0,0.0,3.0
28.622899770736694,4095,0.0,0.0,3.0
28.633689165115356,4095,0.0,0.0,3.0
28.643903255462646,4095,0.0,0.0,3.0
28.653791427612305,4095,0.0,0.0,3.0
28.66275405883789,4095,0.0,0.0,3.0
28.673744916915894,4095,0.0,0.0,3.0
28.68377947807312,4095,0.0,0.0,3.0
28.69377112388611,4095,0.0,0.0,3.0
28.703757524490356,4095,0.0,0.0,3.0
28.713773012161255,4095,0.0,0.0,3.0
28.72375988960266,4095,0.0,0.0,3.0
28.733762979507446,4095,0.0,0.0,3.0
28.743361711502075,4095,0.0,0.0,3.0
28.7537624835968,4095,0.0,0.0,3.0
28.76375675201416,4095,0.0,0.0,3.0
28.766560077667236,4095,0.0,0.0,3.0
28.783323049545288,4095,0.0,0.0,3.0
28.78430938720703,4095,0.0,0.0,3.0
28.803875207901,4095,0.0,0.0,3.0
28.803875207901,0,0.0,0.0,3.0
28.8139066696167,0,0.0,0.0,3.0
28.823888301849365,0,0.0,0.0,3.0
28.833889722824097,0,0.0,0.0,3.0
28.843889951705933,0,0.0,0.0,3.0
28.853888511657715,0,0.0,0.0,3.0
28.863888263702393,0,0.0,0.0,3.0
28.87388849258423,0,0.0,0.0,3.0
28.883888244628906,0,0.0,0.0,3.0
28.8938889503479,0,0.0,0.0,3.0
28.903888463974,0,0.0,0.0,3.0
28.92254328727722,0,0.0,0.0,3.0
28.932549715042114,0,0.0,0.0,3.0
28.93376636505127,0,0.0,0.0,3.0
28.948915719985962,0,0.0,0.0,3.0
28.962190866470337,0,0.0,0.0,3.0
28.967645168304443,0,0.0,0.0,3.0
28.982614040374756,0,0.0,0.0,3.0
28.99214196205139,0,0.0,0.0,3.0
28.997783660888672,0,0.0,0.0,3.0
29.01253032684326,0,0.0,0.0,3.0
29.022536754608154,0,0.0,0.0,3.0
29.032536506652832,0,0.0,0.0,3.0
29.04253840446472,0,0.0,0.0,3.0
29.052538633346558,0,0.0,0.0,3.0
29.063875913619995,4095,0.0,0.0,3.0
29.07297444343567,349,0.0,0.0,3.0
29.08292865753174,4095,0.0,0.0,3.0
29.09282684326172,329,0.0,0.0,3.0
29.102810382843018,4095,0.0,0.0,3.0
29.112794399261475,315,0.0,0.0,3.0
29.122801065444946,4095,0.0,0.0,3.0
29.132805347442627,381,0.0,0.0,3.0
29.143787384033203,4095,0.0,0.0,3.0
29.152788639068604,354,0.0,0.0,3.0
29.1627094745636,4095,0.0,0.0,3.0
29.16865849494934,363,0.0,0.0,3.0
29.183318853378296,4095,0.0,0.0,3.0
29.193384647369385,368,0.0,0.0,3.0
29.199799299240112,4095,0.0,0.0,3.0
29.212931632995605,379,0.0,0.0,3.0
29.223941802978516,4095,0.0,0.0,3.0
29.232921838760376,375,0.0,0.0,3.0
29.243929386138916,4095,0.0,0.0,3.0
29.252832412719727,370,0.0,0.0,3.0
29.263779401779175,4095,0.0,0.0,3.0
29.272766828536987,281,0.0,0.0,3.0
29.282804250717163,4095,0.0,0.0,3.0
29.292789459228516,422,0.0,0.0,3.0
29.30281090736389,4095,0.0,0.0,3.0
29.312792778015137,439,0.0,0.0,3.0
29.323793411254883,4095,0.0,0.0,3.0
29.332794427871704,448,0.0,0.0,3.0
29.34278893470764,4095,0.0,0.0,3.0
29.352787017822266,435,0.0,0.0,3.0
29.36277151107788,4095,0.0,0.0,3.0
29.372875928878784,432,0.0,0.0,3.0
29.383304119110107,4095,0.0,0.0,3.0
29.392563104629517,432,0.0,0.0,3.0
29.400726795196533,4095,0.0,0.0,3.0
29.41383123397827,440,0.0,0.0,3.0
29.416780948638916,4095,0.0,0.0,3.0
29.43379545211792,432,0.0,0.0,3.0
29.434789180755615,4095,0.0,0.0,3.0
29.453776121139526,457,0.0,0.0,3.0
29.46389126777649,4095,0.0,0.0,3.0
29.472902536392212,465,0.0,0.0,3.0
29.483906745910645,4095,0.0,0.0,3.0
29.493878841400146,485,0.0,0.0,3.0
29.50306797027588,4095,0.0,0.0,3.0
29.512813091278076,483,0.0,0.0,3.0
29.523764610290527,4095,0.0,0.0,3.0
29.53276777267456,496,0.0,0.0,3.0
29.542794704437256,4095,0.0,0.0,3.0
29.552796602249146,505,0.0,0.0,3.0
29.563761949539185,4095,0.0,0.0,3.0
29.572789430618286,521,0.0,0.0,3.0
29.58316922187805,4095,0.0,0.0,3.0
29.589574337005615,528,0.0,0.0,3.0
29.599875926971436,4095,0.0,0.0,3.0
29.612762928009033,549,0.0,0.0,3.0
29.616801261901855,4095,0.0,0.0,3.0
29.63379144668579,569,0.0,0.0,3.0
29.643762588500977,4095,0.0,0.0,3.0
29.652786254882812,585,0.0,0.0,3.0
29.66278862953186,4095,0.0,0.0,3.0
29.67276692390442,621,0.0,0.0,3.0
29.683791637420654,4095,0.0,0.0,3.0
29.692787647247314,624,0.0,0.0,3.0
29.702807188034058,4095,0.0,0.0,3.0
29.712775468826294,673,0.0,0.0,3.0
29.723788022994995,4095,0.0,0.0,3.0
29.732789278030396,724,0.0,0.0,3.0
29.74277353286743,4095,0.0,0.0,3.0
29.75280499458313,713,0.0,0.0,3.0
29.763794898986816,4095,0.0,0.0,3.0
29.772783517837524,700,0.0,0.0,3.0
29.782761335372925,4095,0.0,0.0,3.0
29.793222188949585,691,0.0,0.0,3.0
29.803772926330566,4095,0.0,0.0,3.0
29.812799215316772,685,0.0,0.0,3.0
29.81637716293335,4095,0.0,0.0,3.0
29.83311438560486,709,0.0,0.0,3.0
29.834096908569336,4095,0.0,0.0,3.0
29.85277819633484,693,0.0,0.0,3.0
29.86378836631775,4095,0.0,0.0,3.0
29.872790575027466,715,0.0,0.0,3.0
29.88280487060547,4095,0.0,0.0,3.0
29.89278483390808,751,0.0,0.0,3.0
29.902767658233643,4095,0.0,0.0,3.0
29.903764724731445,2737,0.0,0.0,3.0
29.922789096832275,4095,0.0,0.0,3.0
29.933762073516846,4095,0.0,0.0,3.0
29.942809104919434,4095,0.0,0.0,3.0
29.95278835296631,4095,0.0,0.0,3.0
29.96279001235962,4095,0.0,0.0,3.0
29.97278904914856,809,0.0,0.0,3.0
29.983787536621094,4095,0.0,0.0,3.0
29.992766857147217,737,0.0,0.0,3.0
29.998764991760254,4095,0.0,0.0,3.0
