Timestamp,EMG Value,massage_speed,massage_duration,relaxment_level
0.001033782958984375,11115,0.0,30.0,4.0
0.012732744216918945,1598,0.0,30.0,4.0
0.028407573699951172,1161,0.0,30.0,4.0
0.0294036865234375,1349,0.0,30.0,4.0
0.03941607475280762,806,0.0,30.0,4.0
0.04941511154174805,994,0.0,30.0,4.0
0.0594172477722168,301,0.0,30.0,4.0
0.06941699981689453,982,0.0,30.0,4.0
0.07941627502441406,446,0.0,30.0,4.0
0.0894157886505127,526,0.0,30.0,4.0
0.09941458702087402,518,0.0,30.0,4.0
0.11060047149658203,418,0.0,30.0,4.0
0.12060880661010742,493,0.0,30.0,4.0
0.13060903549194336,453,0.0,30.0,4.0
0.1406080722808838,543,0.0,30.0,4.0
0.15060877799987793,432,0.0,30.0,4.0
0.16060781478881836,549,0.0,30.0,4.0
0.1706085205078125,439,0.0,30.0,4.0
0.1874845027923584,527,0.0,30.0,4.0
0.19751191139221191,425,0.0,30.0,4.0
0.20759892463684082,496,0.0,30.0,4.0
0.21718788146972656,438,0.0,30.0,4.0
0.22668814659118652,432,0.0,30.0,4.0
0.23743414878845215,448,0.0,30.0,4.0
0.2455453872680664,367,0.0,30.0,4.0
0.25273799896240234,447,0.0,30.0,4.0
0.2674713134765625,557,0.0,30.0,4.0
0.277371883392334,450,0.0,30.0,4.0
0.28737807273864746,496,0.0,30.0,4.0
0.2973778247833252,443,0.0,30.0,4.0
0.30737805366516113,558,0.0,30.0,4.0
0.3173797130584717,453,0.0,30.0,4.0
0.3273777961730957,572,0.0,30.0,4.0
0.33737778663635254,463,0.0,30.0,4.0
0.3473777770996094,656,0.0,30.0,4.0
0.35748291015625,475,0.0,30.0,4.0
0.3673865795135498,643,0.0,30.0,4.0
0.3771371841430664,497,0.0,30.0,4.0
0.38721752166748047,656,0.0,30.0,4.0
0.3972196578979492,502,0.0,30.0,4.0
0.40721750259399414,669,0.0,30.0,4.0
0.4133305549621582,529,0.0,30.0,4.0
0.42753052711486816,687,0.0,30.0,4.0
0.4375038146972656,549,0.0,30.0,4.0
0.4468367099761963,682,0.0,30.0,4.0
0.45493602752685547,576,0.0,30.0,4.0
0.462963342666626,679,0.0,30.0,4.0
0.46932458877563477,588,0.0,30.0,4.0
0.4853785037994385,679,0.0,30.0,4.0
0.497485876083374,597,0.0,30.0,4.0
0.5075116157531738,745,0.0,30.0,4.0
0.5175139904022217,646,0.0,30.0,4.0
0.5275139808654785,782,0.0,30.0,4.0
0.5375139713287354,698,0.0,30.0,4.0
0.5475137233734131,800,0.0,30.0,4.0
0.557513952255249,735,0.0,30.0,4.0
0.5675139427185059,844,0.0,30.0,4.0
0.5775136947631836,790,0.0,30.0,4.0
0.5875148773193359,843,0.0,30.0,4.0
0.5975112915039062,806,0.0,30.0,4.0
0.6075139045715332,804,0.0,30.0,4.0
0.6174569129943848,832,0.0,30.0,4.0
0.6274933815002441,656,0.0,30.0,4.0
0.6375932693481445,883,0.0,30.0,4.0
0.6473345756530762,672,0.0,30.0,4.0
0.6538248062133789,1360,0.0,30.0,4.0
0.6618499755859375,1014,0.0,30.0,4.0
0.6715335845947266,1378,0.0,30.0,4.0
0.6860067844390869,1088,0.0,30.0,4.0
0.6960246562957764,1067,0.0,30.0,4.0
0.7066934108734131,746,0.0,30.0,4.0
0.7076914310455322,958,0.0,30.0,4.0
0.7187490463256836,4095,0.0,30.0,4.0
0.729625940322876,4095,0.0,30.0,4.0
0.7396268844604492,4095,0.0,30.0,4.0
0.7496261596679688,2854,0.0,30.0,4.0
0.7596261501312256,4095,0.0,30.0,4.0
0.7696259021759033,1961,0.0,30.0,4.0
0.7796244621276855,4095,0.0,30.0,4.0
0.7911376953125,2446,0.0,30.0,4.0
0.807492733001709,4095,0.0,30.0,4.0
0.8175075054168701,3806,0.0,30.0,4.0
0.8275101184844971,4095,0.0,30.0,4.0
0.8375024795532227,4095,0.0,30.0,4.0
0.8476262092590332,4095,0.0,30.0,4.0
0.8572947978973389,4095,0.0,30.0,4.0
0.8634819984436035,4095,0.0,30.0,4.0
0.8714356422424316,4095,0.0,30.0,4.0
0.8872416019439697,4095,0.0,30.0,4.0
0.8962521553039551,4095,0.0,30.0,4.0
0.9042768478393555,4095,0.0,30.0,4.0
0.9142777919769287,4095,0.0,30.0,4.0
0.9274823665618896,4095,0.0,30.0,4.0
0.9374909400939941,4095,0.0,30.0,4.0
0.9476768970489502,4095,0.0,30.0,4.0
0.9476768970489502,4095,0.0,30.0,4.0
0.9586496353149414,4095,0.0,30.0,4.0
0.9686498641967773,4095,0.0,30.0,4.0
0.9786498546600342,4095,0.0,30.0,4.0
0.994854211807251,4095,0.0,30.0,4.0
1.0048582553863525,4095,0.0,30.0,4.0
1.0099153518676758,4095,0.0,30.0,4.0
1.020015001296997,319,0.0,30.0,4.0
1.030014991760254,846,0.0,30.0,4.0
1.046769142150879,1076,0.0,30.0,4.0
1.0543272495269775,873,0.0,30.0,4.0
1.0674724578857422,85,0.0,30.0,4.0
1.0775079727172852,1103,0.0,30.0,4.0
1.0870006084442139,421,0.0,30.0,4.0
1.092850685119629,1041,0.0,30.0,4.0
1.1038873195648193,1245,0.0,30.0,4.0
1.1168467998504639,917,0.0,30.0,4.0
1.1244609355926514,494,0.0,30.0,4.0
1.131194829940796,634,0.0,30.0,4.0
1.1465144157409668,851,0.0,30.0,4.0
1.155951976776123,1169,0.0,30.0,4.0
1.1629273891448975,543,0.0,30.0,4.0
1.177234411239624,1034,0.0,30.0,4.0
1.1869354248046875,528,0.0,30.0,4.0
1.192885160446167,1102,0.0,30.0,4.0
1.2068758010864258,1411,0.0,30.0,4.0
1.2165541648864746,1085,0.0,30.0,4.0
1.2245237827301025,1617,0.0,30.0,4.0
1.2377777099609375,1475,0.0,30.0,4.0
1.247366189956665,1273,0.0,30.0,4.0
1.2541933059692383,2509,0.0,30.0,4.0
1.262786626815796,1442,0.0,30.0,4.0
1.277052640914917,1968,0.0,30.0,4.0
1.2867085933685303,1232,0.0,30.0,4.0
1.2967207431793213,2181,0.0,30.0,4.0
1.3077337741851807,1415,0.0,30.0,4.0
1.315351963043213,2178,0.0,30.0,4.0
1.3253202438354492,1198,0.0,30.0,4.0
1.3374929428100586,1958,0.0,30.0,4.0
1.3471202850341797,1281,0.0,30.0,4.0
1.3554229736328125,2303,0.0,30.0,4.0
1.3625080585479736,1099,0.0,30.0,4.0
1.377878189086914,1522,0.0,30.0,4.0
1.3875937461853027,1007,0.0,30.0,4.0
1.3976421356201172,2759,0.0,30.0,4.0
1.4075231552124023,1247,0.0,30.0,4.0
1.4151370525360107,2743,0.0,30.0,4.0
1.4228472709655762,841,0.0,30.0,4.0
1.4372472763061523,2288,0.0,30.0,4.0
1.4469873905181885,1015,0.0,30.0,4.0
1.4576447010040283,2672,0.0,30.0,4.0
1.4688811302185059,1050,0.0,30.0,4.0
1.4777069091796875,2598,0.0,30.0,4.0
1.4874587059020996,1424,0.0,30.0,4.0
1.492002010345459,0,0.0,30.0,4.0
1.5075161457061768,2445,0.0,30.0,4.0
1.5160942077636719,912,0.0,30.0,4.0
1.5237147808074951,2096,0.0,30.0,4.0
1.537196159362793,0,0.0,30.0,4.0
1.5466578006744385,1653,0.0,30.0,4.0
1.5576229095458984,0,0.0,30.0,4.0
1.5621776580810547,1,0.0,30.0,4.0
1.5768609046936035,0,0.0,30.0,4.0
1.5872766971588135,1344,0.0,30.0,4.0
1.5927460193634033,0,0.0,30.0,4.0
1.607740879058838,1729,0.0,30.0,4.0
1.6139297485351562,9,0.0,30.0,4.0
1.6221661567687988,1715,0.0,30.0,4.0
1.6375572681427002,0,0.0,30.0,4.0
1.645561933517456,1747,0.0,30.0,4.0
1.6525170803070068,20,0.0,30.0,4.0
1.667431116104126,1727,0.0,30.0,4.0
1.6771862506866455,0,0.0,30.0,4.0
1.687096118927002,1872,0.0,30.0,4.0
1.6975462436676025,1287,0.0,30.0,4.0
1.7069971561431885,2181,0.0,30.0,4.0
1.717015027999878,0,0.0,30.0,4.0
1.727224588394165,2608,0.0,30.0,4.0
1.737126111984253,2077,0.0,30.0,4.0
1.7462596893310547,2543,0.0,30.0,4.0
1.7526421546936035,4095,0.0,30.0,4.0
1.7667567729949951,2480,0.0,30.0,4.0
1.7772362232208252,4095,0.0,30.0,4.0
1.785637378692627,2387,0.0,30.0,4.0
1.7968471050262451,4095,0.0,30.0,4.0
1.8064124584197998,2384,0.0,30.0,4.0
1.817553997039795,4095,0.0,30.0,4.0
1.8270988464355469,2192,0.0,30.0,4.0
1.8376753330230713,4095,0.0,30.0,4.0
1.8467988967895508,2253,0.0,30.0,4.0
1.857109785079956,4095,0.0,30.0,4.0
1.867074966430664,2219,0.0,30.0,4.0
1.8714234828948975,4095,0.0,30.0,4.0
1.8868739604949951,1952,0.0,30.0,4.0
1.8928203582763672,4095,0.0,30.0,4.0
1.9081392288208008,2064,0.0,30.0,4.0
1.9169220924377441,4095,0.0,30.0,4.0
1.9270243644714355,1993,0.0,30.0,4.0
1.9372375011444092,4095,0.0,30.0,4.0
1.945326328277588,2054,0.0,30.0,4.0
1.9570205211639404,4095,0.0,30.0,4.0
1.961623191833496,1905,0.0,30.0,4.0
1.9770567417144775,4095,0.0,30.0,4.0
1.987877368927002,1850,0.0,30.0,4.0
1.9904463291168213,3735,0.0,30.0,4.0
2.0020084381103516,1584,0.0,30.0,4.0
2.0158119201660156,2266,0.0,30.0,4.0
2.019556999206543,1376,0.0,30.0,4.0
2.030658721923828,1226,0.0,30.0,4.0
2.047520875930786,2093,0.0,30.0,4.0
2.057553768157959,293,0.0,30.0,4.0
2.0677225589752197,176,0.0,30.0,4.0
2.0687193870544434,0,0.0,30.0,4.0
2.078728199005127,193,0.0,30.0,4.0
2.0907490253448486,0,0.0,30.0,4.0
2.1061642169952393,2176,0.0,30.0,4.0
2.1175310611724854,0,0.0,30.0,4.0
2.1261391639709473,242,0.0,30.0,4.0
2.136807441711426,0,0.0,30.0,4.0
2.1445229053497314,146,0.0,30.0,4.0
2.152806043624878,86,0.0,30.0,4.0
2.1676433086395264,2242,0.0,30.0,4.0
2.176901340484619,1199,0.0,30.0,4.0
2.1871676445007324,0,0.0,30.0,4.0
2.19732403755188,163,0.0,30.0,4.0
2.2069950103759766,1334,0.0,30.0,4.0
2.217219829559326,55,0.0,30.0,4.0
2.2234880924224854,0,0.0,30.0,4.0
2.2366983890533447,0,0.0,30.0,4.0
2.2442753314971924,0,0.0,30.0,4.0
2.2544264793395996,0,0.0,30.0,4.0
2.2674074172973633,2672,0.0,30.0,4.0
2.275583267211914,128,0.0,30.0,4.0
2.286411762237549,0,0.0,30.0,4.0
2.2970187664031982,90,0.0,30.0,4.0
2.307692527770996,0,0.0,30.0,4.0
2.3182475566864014,1117,0.0,30.0,4.0
2.3252813816070557,0,0.0,30.0,4.0
2.336709976196289,4095,0.0,30.0,4.0
2.345309257507324,0,0.0,30.0,4.0
2.3524343967437744,4095,0.0,30.0,4.0
2.3680427074432373,0,0.0,30.0,4.0
2.377462863922119,4095,0.0,30.0,4.0
2.386481761932373,0,0.0,30.0,4.0
2.3976359367370605,4095,0.0,30.0,4.0
2.4077205657958984,0,0.0,30.0,4.0
2.4176485538482666,4095,0.0,30.0,4.0
2.4203176498413086,0,0.0,30.0,4.0
2.4303371906280518,4095,0.0,30.0,4.0
2.4403371810913086,51,0.0,30.0,4.0
2.450345993041992,4095,0.0,30.0,4.0
2.460336208343506,89,0.0,30.0,4.0
2.477957248687744,4095,0.0,30.0,4.0
2.487964391708374,98,0.0,30.0,4.0
2.49796462059021,4095,0.0,30.0,4.0
2.49796462059021,155,0.0,30.0,4.0
2.507965087890625,0,0.0,30.0,4.0
2.5269277095794678,225,0.0,30.0,4.0
2.535086154937744,311,0.0,30.0,4.0
2.547001600265503,726,0.0,30.0,4.0
2.556851625442505,961,0.0,30.0,4.0
2.568002700805664,1435,0.0,30.0,4.0
2.57511305809021,893,0.0,30.0,4.0
2.5858993530273438,1273,0.0,30.0,4.0
2.597472906112671,798,0.0,30.0,4.0
2.6055634021759033,2735,0.0,30.0,4.0
2.6129298210144043,344,0.0,30.0,4.0
2.6273717880249023,4095,0.0,30.0,4.0
2.636847972869873,674,0.0,30.0,4.0
2.6438300609588623,4095,0.0,30.0,4.0
2.6580770015716553,1614,0.0,30.0,4.0
2.6682498455047607,4095,0.0,30.0,4.0
2.675304651260376,2462,0.0,30.0,4.0
2.6869142055511475,4095,0.0,30.0,4.0
2.697704553604126,2327,0.0,30.0,4.0
2.704918622970581,4095,0.0,30.0,4.0
2.7181973457336426,2707,0.0,30.0,4.0
2.7274041175842285,4095,0.0,30.0,4.0
2.7368884086608887,4095,0.0,30.0,4.0
2.743525505065918,4095,0.0,30.0,4.0
2.759066581726074,4095,0.0,30.0,4.0
2.768259286880493,4095,0.0,30.0,4.0
2.777017593383789,4095,0.0,30.0,4.0
2.787623643875122,4095,0.0,30.0,4.0
2.7971019744873047,3750,0.0,30.0,4.0
2.8057498931884766,4095,0.0,30.0,4.0
2.8150036334991455,4095,0.0,30.0,4.0
2.827739715576172,4095,0.0,30.0,4.0
2.836827278137207,4095,0.0,30.0,4.0
2.8452248573303223,4095,0.0,30.0,4.0
2.8575210571289062,4095,0.0,30.0,4.0
2.8662002086639404,4095,0.0,30.0,4.0
2.876331329345703,4095,0.0,30.0,4.0
2.8882391452789307,4095,0.0,30.0,4.0
2.8968164920806885,4095,0.0,30.0,4.0
2.9054808616638184,4095,0.0,30.0,4.0
2.917876720428467,4095,0.0,30.0,4.0
2.9274725914001465,4095,0.0,30.0,4.0
2.937811851501465,4095,0.0,30.0,4.0
2.9439265727996826,4095,0.0,30.0,4.0
2.9575538635253906,4095,0.0,30.0,4.0
2.967926263809204,4095,0.0,30.0,4.0
2.9771342277526855,4095,0.0,30.0,4.0
2.9879989624023438,4095,0.0,30.0,4.0
2.9979348182678223,4095,0.0,30.0,4.0
3.007768154144287,4095,0.0,30.0,4.0
3.0179529190063477,4095,0.0,30.0,4.0
3.0273571014404297,4095,0.0,30.0,4.0
3.036949872970581,4095,0.0,30.0,4.0
3.0432469844818115,4095,0.0,30.0,4.0
3.057176113128662,4095,0.0,30.0,4.0
3.0683212280273438,4095,0.0,30.0,4.0
3.0738613605499268,4095,0.0,30.0,4.0
3.088069200515747,4095,0.0,30.0,4.0
3.097775936126709,4095,0.0,30.0,4.0
3.1076323986053467,4095,0.0,30.0,4.0
3.1179275512695312,4095,0.0,30.0,4.0
3.120980739593506,4095,0.0,30.0,4.0
3.1378321647644043,4095,0.0,30.0,4.0
3.1458375453948975,4095,0.0,30.0,4.0
3.1569631099700928,4095,0.0,30.0,4.0
3.167935848236084,4095,0.0,30.0,4.0
3.1749279499053955,4095,0.0,30.0,4.0
3.187544584274292,4095,0.0,30.0,4.0
3.197295904159546,4095,0.0,30.0,4.0
3.2053377628326416,4095,0.0,30.0,4.0
3.2179112434387207,4095,0.0,30.0,4.0
3.2269630432128906,4095,0.0,30.0,4.0
3.236271381378174,4095,0.0,30.0,4.0
3.2434074878692627,4095,0.0,30.0,4.0
3.2567243576049805,4095,0.0,30.0,4.0
3.266310930252075,4095,0.0,30.0,4.0
3.2743265628814697,4095,0.0,30.0,4.0
3.2875876426696777,4095,0.0,30.0,4.0
3.295989751815796,4095,0.0,30.0,4.0
3.3076331615448,4095,0.0,30.0,4.0
3.3182735443115234,4095,0.0,30.0,4.0
3.327735662460327,4095,0.0,30.0,4.0
3.337202548980713,4095,0.0,30.0,4.0
3.3431172370910645,4095,0.0,30.0,4.0
3.3573760986328125,4095,0.0,30.0,4.0
3.367884397506714,4095,0.0,30.0,4.0
3.3727030754089355,4095,0.0,30.0,4.0
3.3870887756347656,4095,0.0,30.0,4.0
3.396841049194336,4095,0.0,30.0,4.0
3.407273769378662,4095,0.0,30.0,4.0
3.4185705184936523,4095,0.0,30.0,4.0
3.42771315574646,4095,0.0,30.0,4.0
3.437838315963745,4095,0.0,30.0,4.0
3.4429149627685547,4095,0.0,30.0,4.0
3.4575753211975098,4095,0.0,30.0,4.0
3.4649527072906494,4095,0.0,30.0,4.0
3.472594976425171,4095,0.0,30.0,4.0
3.4880266189575195,4095,0.0,30.0,4.0
3.4880266189575195,4095,0.0,30.0,4.0
3.5029678344726562,4095,0.0,30.0,4.0
3.5130116939544678,4095,0.0,30.0,4.0
3.5276949405670166,4095,0.0,30.0,4.0
3.537706136703491,4095,0.0,30.0,4.0
3.5477075576782227,4095,0.0,30.0,4.0
3.558072090148926,4095,0.0,30.0,4.0
3.5649166107177734,4095,0.0,30.0,4.0
3.576730966567993,4095,0.0,30.0,4.0
3.5943527221679688,4095,0.0,30.0,4.0
3.5943527221679688,4095,0.0,30.0,4.0
3.607517719268799,4095,0.0,30.0,4.0
3.6182029247283936,4095,0.0,30.0,4.0
3.627159833908081,4095,0.0,30.0,4.0
3.6381571292877197,4095,0.0,30.0,4.0
3.649332046508789,4095,0.0,30.0,4.0
3.6574511528015137,4095,0.0,30.0,4.0
3.669586181640625,4095,0.0,30.0,4.0
3.6776843070983887,4095,0.0,30.0,4.0
3.687506914138794,3163,0.0,30.0,4.0
3.6970036029815674,4095,0.0,30.0,4.0
3.707425594329834,4095,0.0,30.0,4.0
3.715463161468506,121,0.0,30.0,4.0
3.7235426902770996,4095,0.0,30.0,4.0
3.733543634414673,0,0.0,30.0,4.0
3.7473626136779785,2151,0.0,30.0,4.0
3.75736403465271,202,0.0,30.0,4.0
3.767263889312744,1136,0.0,30.0,4.0
3.777433156967163,227,0.0,30.0,4.0
3.786837100982666,1128,0.0,30.0,4.0
3.7948923110961914,304,0.0,30.0,4.0
3.802618980407715,976,0.0,30.0,4.0
3.8178467750549316,1594,0.0,30.0,4.0
3.8188443183898926,1743,0.0,30.0,4.0
3.835249662399292,1469,0.0,30.0,4.0
3.841146469116211,80,0.0,30.0,4.0
3.857457160949707,1410,0.0,30.0,4.0
3.8660128116607666,0,0.0,30.0,4.0
3.8767664432525635,2189,0.0,30.0,4.0
3.886768102645874,0,0.0,30.0,4.0
3.896775722503662,222,0.0,30.0,4.0
3.9021525382995605,0,0.0,30.0,4.0
3.91690993309021,1796,0.0,30.0,4.0
3.926865816116333,1521,0.0,30.0,4.0
3.9361324310302734,2399,0.0,30.0,4.0
3.947600841522217,0,0.0,30.0,4.0
3.9571938514709473,531,0.0,30.0,4.0
3.967303514480591,0,0.0,30.0,4.0
3.97597599029541,1568,0.0,30.0,4.0
3.987276077270508,0,0.0,30.0,4.0
3.9978909492492676,1309,0.0,30.0,4.0
4.006985425949097,0,0.0,30.0,4.0
4.017599821090698,1669,0.0,30.0,4.0
4.025342226028442,0,0.0,30.0,4.0
4.035206317901611,2194,0.0,30.0,4.0
4.047407865524292,0,0.0,30.0,4.0
4.057039022445679,685,0.0,30.0,4.0
4.0648033618927,64,0.0,30.0,4.0
4.076818943023682,1509,0.0,30.0,4.0
4.0871453285217285,0,0.0,30.0,4.0
4.096988201141357,1262,0.0,30.0,4.0
4.102437973022461,0,0.0,30.0,4.0
4.1176512241363525,1595,0.0,30.0,4.0
4.126936435699463,2972,0.0,30.0,4.0
4.137233257293701,2526,0.0,30.0,4.0
4.147225618362427,0,0.0,30.0,4.0
4.1576783657073975,487,0.0,30.0,4.0
4.165105581283569,0,0.0,30.0,4.0
4.177595853805542,390,0.0,30.0,4.0
4.186514377593994,0,0.0,30.0,4.0
4.197490453720093,1753,0.0,30.0,4.0
4.204120635986328,0,0.0,30.0,4.0
4.217187881469727,759,0.0,30.0,4.0
4.225854873657227,3024,0.0,30.0,4.0
4.2352399826049805,0,0.0,30.0,4.0
4.2469048500061035,0,0.0,30.0,4.0
4.2565085887908936,2655,0.0,30.0,4.0
4.263185977935791,0,0.0,30.0,4.0
4.277634382247925,2063,0.0,30.0,4.0
4.286355257034302,2949,0.0,30.0,4.0
4.29497218132019,1426,0.0,30.0,4.0
4.30352520942688,0,0.0,30.0,4.0
4.31761622428894,0,0.0,30.0,4.0
4.326000452041626,0,0.0,30.0,4.0
4.3352601528167725,0,0.0,30.0,4.0
4.346707105636597,0,0.0,30.0,4.0
4.356288909912109,0,0.0,30.0,4.0
4.3676581382751465,1187,0.0,30.0,4.0
4.377588748931885,1770,0.0,30.0,4.0
4.386217355728149,2334,0.0,30.0,4.0
4.394814968109131,0,0.0,30.0,4.0
4.401521682739258,2650,0.0,30.0,4.0
4.417637348175049,2475,0.0,30.0,4.0
4.425565958023071,2672,0.0,30.0,4.0
4.436665773391724,0,0.0,30.0,4.0
4.447610139846802,0,0.0,30.0,4.0
4.454275369644165,1055,0.0,30.0,4.0
4.464245557785034,2809,0.0,30.0,4.0
4.470540523529053,1638,0.0,30.0,4.0
4.486969947814941,2590,0.0,30.0,4.0
4.494667053222656,0,0.0,30.0,4.0
4.507173538208008,2972,0.0,30.0,4.0
4.517422437667847,0,0.0,30.0,4.0
4.525267839431763,2464,0.0,30.0,4.0
4.535783529281616,0,0.0,30.0,4.0
4.54747200012207,0,0.0,30.0,4.0
4.555944442749023,0,0.0,30.0,4.0
4.567596912384033,2430,0.0,30.0,4.0
4.576974153518677,0,0.0,30.0,4.0
4.587250709533691,2940,0.0,30.0,4.0
4.596949577331543,0,0.0,30.0,4.0
4.6054229736328125,0,0.0,30.0,4.0
4.617568492889404,0,0.0,30.0,4.0
4.624120235443115,2912,0.0,30.0,4.0
4.631748914718628,0,0.0,30.0,4.0
4.647036075592041,2177,0.0,30.0,4.0
4.6548237800598145,2693,0.0,30.0,4.0
4.663588762283325,2467,0.0,30.0,4.0
4.678905725479126,2555,0.0,30.0,4.0
4.687025308609009,2233,0.0,30.0,4.0
4.693356513977051,2283,0.0,30.0,4.0
4.70709490776062,0,0.0,30.0,4.0
4.715718746185303,2290,0.0,30.0,4.0
4.722464084625244,2544,0.0,30.0,4.0
4.738252878189087,1712,0.0,30.0,4.0
4.7475950717926025,2144,0.0,30.0,4.0
4.753088712692261,1701,0.0,30.0,4.0
4.76082181930542,2827,0.0,30.0,4.0
4.777023792266846,0,0.0,30.0,4.0
4.785838842391968,2739,0.0,30.0,4.0
4.795945644378662,0,0.0,30.0,4.0
4.80596137046814,0,0.0,30.0,4.0
4.817076206207275,0,0.0,30.0,4.0
4.827267646789551,3017,0.0,30.0,4.0
4.837245464324951,1744,0.0,30.0,4.0
4.847004175186157,1776,0.0,30.0,4.0
4.857487440109253,2654,0.0,30.0,4.0
4.867380857467651,1078,0.0,30.0,4.0
4.876984596252441,2629,0.0,30.0,4.0
4.887134552001953,2611,0.0,30.0,4.0
4.89738917350769,2301,0.0,30.0,4.0
4.907798767089844,2807,0.0,30.0,4.0
4.915886163711548,0,0.0,30.0,4.0
4.926842451095581,1278,0.0,30.0,4.0
4.937348127365112,421,0.0,30.0,4.0
4.947383880615234,0,0.0,30.0,4.0
4.956897735595703,1669,0.0,30.0,4.0
4.967243671417236,0,0.0,30.0,4.0
4.977188587188721,37,0.0,30.0,4.0
4.986861228942871,0,0.0,30.0,4.0
4.997010946273804,0,0.0,30.0,4.0
5.007063388824463,0,0.0,30.0,4.0
5.010056257247925,0,0.0,30.0,4.0
5.024322032928467,0,0.0,30.0,4.0
5.036571264266968,0,0.0,30.0,4.0
5.046741724014282,2929,0.0,30.0,4.0
5.057285785675049,0,0.0,30.0,4.0
5.067604303359985,2827,0.0,30.0,4.0
5.076592683792114,0,0.0,30.0,4.0
5.086245536804199,2352,0.0,30.0,4.0
5.097452402114868,0,0.0,30.0,4.0
5.107383728027344,1908,0.0,30.0,4.0
5.117666959762573,2042,0.0,30.0,4.0
5.1274049282073975,2507,0.0,30.0,4.0
5.137136697769165,2545,0.0,30.0,4.0
5.147139072418213,2422,0.0,30.0,4.0
5.157299995422363,1361,0.0,30.0,4.0
5.168317556381226,2649,0.0,30.0,4.0
5.17730975151062,2513,0.0,30.0,4.0
5.186702251434326,2512,0.0,30.0,4.0
5.187699556350708,0,0.0,30.0,4.0
5.207709074020386,2690,0.0,30.0,4.0
5.217708587646484,0,0.0,30.0,4.0
5.227707386016846,2716,0.0,30.0,4.0
5.237708568572998,2608,0.0,30.0,4.0
5.247865200042725,2647,0.0,30.0,4.0
5.258173227310181,2640,0.0,30.0,4.0
5.273088216781616,2766,0.0,30.0,4.0
5.277172565460205,2655,0.0,30.0,4.0
5.280251979827881,2751,0.0,30.0,4.0
5.290261507034302,976,0.0,30.0,4.0
5.308453321456909,2770,0.0,30.0,4.0
5.3177735805511475,1613,0.0,30.0,4.0
5.3273091316223145,2943,0.0,30.0,4.0
5.3595802783966064,2576,0.0,30.0,4.0
5.3595802783966064,2879,0.0,30.0,4.0
5.360633373260498,0,0.0,30.0,4.0
5.367383718490601,2899,0.0,30.0,4.0
5.378887891769409,1770,0.0,30.0,4.0
5.388136863708496,2951,0.0,30.0,4.0
5.39703369140625,1822,0.0,30.0,4.0
5.406847953796387,2951,0.0,30.0,4.0
5.418115615844727,2531,0.0,30.0,4.0
5.4269773960113525,3006,0.0,30.0,4.0
5.437597990036011,2586,0.0,30.0,4.0
5.446878671646118,2982,0.0,30.0,4.0
5.456806659698486,1477,0.0,30.0,4.0
5.467068910598755,2718,0.0,30.0,4.0
5.477567911148071,375,0.0,30.0,4.0
5.487309217453003,2713,0.0,30.0,4.0
5.496583461761475,0,0.0,30.0,4.0
5.507397890090942,2530,0.0,30.0,4.0
5.5167906284332275,0,0.0,30.0,4.0
5.527078866958618,833,0.0,30.0,4.0
5.53743052482605,1552,0.0,30.0,4.0
5.547584772109985,902,0.0,30.0,4.0
5.557010889053345,0,0.0,30.0,4.0
5.566692352294922,0,0.0,30.0,4.0
5.577520370483398,0,0.0,30.0,4.0
5.586899518966675,0,0.0,30.0,4.0
5.5973405838012695,0,0.0,30.0,4.0
5.606626987457275,0,0.0,30.0,4.0
5.616986036300659,0,0.0,30.0,4.0
5.626692533493042,0,0.0,30.0,4.0
5.637402772903442,0,0.0,30.0,4.0
5.647006988525391,0,0.0,30.0,4.0
5.6537184715271,0,0.0,30.0,4.0
5.667123556137085,0,0.0,30.0,4.0
5.675731182098389,0,0.0,30.0,4.0
5.687551259994507,0,0.0,30.0,4.0
5.694136381149292,0,0.0,30.0,4.0
5.706542491912842,0,0.0,30.0,4.0
5.717216730117798,0,0.0,30.0,4.0
5.723104238510132,0,0.0,30.0,4.0
5.736968517303467,0,0.0,30.0,4.0
5.744993448257446,0,0.0,30.0,4.0
5.757338762283325,0,0.0,30.0,4.0
5.766900062561035,0,0.0,30.0,4.0
5.777390241622925,0,0.0,30.0,4.0
5.787536144256592,0,0.0,30.0,4.0
5.795257329940796,0,0.0,30.0,4.0
5.807350397109985,0,0.0,30.0,4.0
5.814938545227051,0,0.0,30.0,4.0
5.826814413070679,0,0.0,30.0,4.0
5.837064743041992,0,0.0,30.0,4.0
5.844761371612549,0,0.0,30.0,4.0
5.855664253234863,0,0.0,30.0,4.0
5.8677709102630615,0,0.0,30.0,4.0
5.875402212142944,0,0.0,30.0,4.0
5.8873655796051025,0,0.0,30.0,4.0
5.897486448287964,0,0.0,30.0,4.0
5.9070069789886475,0,0.0,30.0,4.0
5.917453050613403,0,0.0,30.0,4.0
5.921812057495117,0,0.0,30.0,4.0
5.9368438720703125,0,0.0,30.0,4.0
5.946293592453003,0,0.0,30.0,4.0
5.953701496124268,0,0.0,30.0,4.0
5.967493295669556,0,0.0,30.0,4.0
5.975199222564697,0,0.0,30.0,4.0
5.986556053161621,0,0.0,30.0,4.0
5.991430282592773,0,0.0,30.0,4.0
6.006551027297974,0,0.0,30.0,4.0
6.0176005363464355,0,0.0,30.0,4.0
6.021970510482788,0,0.0,30.0,4.0
6.036931037902832,0,0.0,30.0,4.0
6.04727578163147,0,0.0,30.0,4.0
6.052733659744263,0,0.0,30.0,4.0
6.067360877990723,0,0.0,30.0,4.0
6.074941158294678,0,0.0,30.0,4.0
6.086988925933838,0,0.0,30.0,4.0
6.096990585327148,0,0.0,30.0,4.0
6.107729196548462,0,0.0,30.0,4.0
6.117535829544067,0,0.0,30.0,4.0
6.122671842575073,0,0.0,30.0,4.0
6.136401891708374,0,0.0,30.0,4.0
6.147316217422485,0,0.0,30.0,4.0
6.154983282089233,0,0.0,30.0,4.0
6.167184591293335,0,0.0,30.0,4.0
6.17471981048584,0,0.0,30.0,4.0
6.187799692153931,0,0.0,30.0,4.0
6.197822570800781,0,0.0,30.0,4.0
6.205472230911255,0,0.0,30.0,4.0
6.217328786849976,0,0.0,30.0,4.0
6.227640628814697,0,0.0,30.0,4.0
6.236782073974609,0,0.0,30.0,4.0
6.244264602661133,0,0.0,30.0,4.0
6.251787185668945,0,0.0,30.0,4.0
6.267330884933472,0,0.0,30.0,4.0
6.2693235874176025,0,0.0,30.0,4.0
6.285474538803101,0,0.0,30.0,4.0
6.29777979850769,0,0.0,30.0,4.0
6.305344104766846,0,0.0,30.0,4.0
6.313068151473999,0,0.0,30.0,4.0
6.32079553604126,0,0.0,30.0,4.0
6.336846351623535,0,0.0,30.0,4.0
6.347281455993652,0,0.0,30.0,4.0
6.353017091751099,0,0.0,30.0,4.0
6.367196321487427,0,0.0,30.0,4.0
6.377355098724365,21,0.0,30.0,4.0
6.382058143615723,0,0.0,30.0,4.0
6.397445201873779,0,0.0,30.0,4.0
6.406058311462402,0,0.0,30.0,4.0
6.4172585010528564,0,0.0,30.0,4.0
6.427295207977295,0,0.0,30.0,4.0
6.43668270111084,0,0.0,30.0,4.0
6.446779251098633,0,0.0,30.0,4.0
6.451161623001099,0,0.0,30.0,4.0
6.467221260070801,0,0.0,30.0,4.0
6.477015256881714,49,0.0,30.0,4.0
6.487432956695557,0,0.0,30.0,4.0
6.497311353683472,0,0.0,30.0,4.0
6.5048606395721436,0,0.0,30.0,4.0
6.513592958450317,0,0.0,30.0,4.0
6.5268590450286865,0,0.0,30.0,4.0
6.537409067153931,16,0.0,30.0,4.0
6.543334245681763,0,0.0,30.0,4.0
6.553105115890503,21,0.0,30.0,4.0
6.567157983779907,0,0.0,30.0,4.0
6.573951721191406,53,0.0,30.0,4.0
6.584846496582031,0,0.0,30.0,4.0
6.596972465515137,29,0.0,30.0,4.0
6.606710433959961,0,0.0,30.0,4.0
6.616920232772827,0,0.0,30.0,4.0
6.627608060836792,0,0.0,30.0,4.0
6.6366894245147705,10,0.0,30.0,4.0
6.645923852920532,0,0.0,30.0,4.0
6.657464027404785,0,0.0,30.0,4.0
6.667530536651611,0,0.0,30.0,4.0
6.676101207733154,0,0.0,30.0,4.0
6.687348365783691,0,0.0,30.0,4.0
6.696243524551392,0,0.0,30.0,4.0
6.706555604934692,0,0.0,30.0,4.0
6.716596364974976,30,0.0,30.0,4.0
6.72706151008606,0,0.0,30.0,4.0
6.737135410308838,106,0.0,30.0,4.0
6.746870040893555,0,0.0,30.0,4.0
6.757200002670288,109,0.0,30.0,4.0
6.767157793045044,0,0.0,30.0,4.0
6.7772746086120605,16,0.0,30.0,4.0
6.786927938461304,0,0.0,30.0,4.0
6.798416614532471,30,0.0,30.0,4.0
6.807441234588623,0,0.0,30.0,4.0
6.816575765609741,81,0.0,30.0,4.0
6.826897144317627,0,0.0,30.0,4.0
6.837117910385132,155,0.0,30.0,4.0
6.847330093383789,0,0.0,30.0,4.0
6.856805801391602,59,0.0,30.0,4.0
6.867090940475464,0,0.0,30.0,4.0
6.873241186141968,0,0.0,30.0,4.0
6.886325836181641,0,0.0,30.0,4.0
6.8887107372283936,112,0.0,30.0,4.0
6.904113054275513,0,0.0,30.0,4.0
6.917002439498901,89,0.0,30.0,4.0
6.9271509647369385,0,0.0,30.0,4.0
6.934727191925049,181,0.0,30.0,4.0
6.943373918533325,0,0.0,30.0,4.0
6.957106351852417,118,0.0,30.0,4.0
6.9672253131866455,0,0.0,30.0,4.0
6.973140716552734,0,0.0,30.0,4.0
6.986160755157471,0,0.0,30.0,4.0
6.995294094085693,130,0.0,30.0,4.0
7.004040241241455,0,0.0,30.0,4.0
7.011636257171631,122,0.0,30.0,4.0
7.027917861938477,0,0.0,30.0,4.0
7.033672332763672,170,0.0,30.0,4.0
7.042227268218994,0,0.0,30.0,4.0
7.052321672439575,97,0.0,30.0,4.0
7.066981792449951,0,0.0,30.0,4.0
7.0759382247924805,108,0.0,30.0,4.0
7.087478160858154,0,0.0,30.0,4.0
7.097126007080078,196,0.0,30.0,4.0
7.103869915008545,0,0.0,30.0,4.0
7.117093324661255,165,0.0,30.0,4.0
7.126623868942261,0,0.0,30.0,4.0
7.134602785110474,130,0.0,30.0,4.0
7.1468095779418945,0,0.0,30.0,4.0
7.157330274581909,175,0.0,30.0,4.0
7.166972398757935,0,0.0,30.0,4.0
7.172636032104492,176,0.0,30.0,4.0
7.187034368515015,0,0.0,30.0,4.0
7.197622537612915,252,0.0,30.0,4.0
7.203639030456543,0,0.0,30.0,4.0
7.217238187789917,180,0.0,30.0,4.0
7.227548837661743,0,0.0,30.0,4.0
7.237810134887695,113,0.0,30.0,4.0
7.242811918258667,0,0.0,30.0,4.0
7.257493257522583,194,0.0,30.0,4.0
7.264929294586182,0,0.0,30.0,4.0
7.267794609069824,286,0.0,30.0,4.0
7.287096738815308,0,0.0,30.0,4.0
7.296630859375,327,0.0,30.0,4.0
7.303386449813843,0,0.0,30.0,4.0
7.318048715591431,225,0.0,30.0,4.0
7.327679395675659,0,0.0,30.0,4.0
7.3360865116119385,221,0.0,30.0,4.0
7.342694282531738,0,0.0,30.0,4.0
7.356955289840698,195,0.0,30.0,4.0
7.36564040184021,0,0.0,30.0,4.0
7.3732688426971436,100,0.0,30.0,4.0
7.387603044509888,0,0.0,30.0,4.0
7.395364999771118,240,0.0,30.0,4.0
7.405222654342651,0,0.0,30.0,4.0
7.4173808097839355,214,0.0,30.0,4.0
7.426040887832642,0,0.0,30.0,4.0
7.434781551361084,0,0.0,30.0,4.0
7.441476821899414,0,0.0,30.0,4.0
7.457869529724121,383,0.0,30.0,4.0
7.46706748008728,0,0.0,30.0,4.0
7.4721128940582275,298,0.0,30.0,4.0
7.487483501434326,0,0.0,30.0,4.0
7.495105028152466,333,0.0,30.0,4.0
7.504924535751343,0,0.0,30.0,4.0
7.517365455627441,435,0.0,30.0,4.0
7.525786399841309,0,0.0,30.0,4.0
7.5371644496917725,380,0.0,30.0,4.0
7.54218864440918,0,0.0,30.0,4.0
7.5577685832977295,539,0.0,30.0,4.0
7.567073822021484,0,0.0,30.0,4.0
7.573036193847656,413,0.0,30.0,4.0
7.5872886180877686,0,0.0,30.0,4.0
7.5973961353302,272,0.0,30.0,4.0
7.602647066116333,0,0.0,30.0,4.0
7.617193698883057,299,0.0,30.0,4.0
7.626645088195801,0,0.0,30.0,4.0
7.637021064758301,331,0.0,30.0,4.0
7.641998767852783,0,0.0,30.0,4.0
7.656412363052368,585,0.0,30.0,4.0
7.663968086242676,59,0.0,30.0,4.0
7.672730445861816,236,0.0,30.0,4.0
7.6871654987335205,0,0.0,30.0,4.0
7.695779323577881,214,0.0,30.0,4.0
7.706390380859375,15,0.0,30.0,4.0
7.716773509979248,478,0.0,30.0,4.0
7.7270262241363525,0,0.0,30.0,4.0
7.736238479614258,326,0.0,30.0,4.0
7.741898059844971,0,0.0,30.0,4.0
7.757113218307495,559,0.0,30.0,4.0
7.767160654067993,163,0.0,30.0,4.0
7.772851943969727,126,0.0,30.0,4.0
7.7871739864349365,0,0.0,30.0,4.0
7.79777979850769,336,0.0,30.0,4.0
7.802613258361816,56,0.0,30.0,4.0
7.81756591796875,537,0.0,30.0,4.0
7.826259613037109,0,0.0,30.0,4.0
7.836218357086182,238,0.0,30.0,4.0
7.847600936889648,0,0.0,30.0,4.0
7.856370687484741,583,0.0,30.0,4.0
7.866926193237305,224,0.0,30.0,4.0
7.87143349647522,0,0.0,30.0,4.0
7.887365102767944,2,0.0,30.0,4.0
7.897265434265137,102,0.0,30.0,4.0
7.902165412902832,102,0.0,30.0,4.0
7.917442798614502,782,0.0,30.0,4.0
7.926111698150635,0,0.0,30.0,4.0
7.935967445373535,288,0.0,30.0,4.0
7.940536022186279,32,0.0,30.0,4.0
7.956294775009155,447,0.0,30.0,4.0
7.966944932937622,258,0.0,30.0,4.0
7.978003025054932,224,0.0,30.0,4.0
7.987164258956909,103,0.0,30.0,4.0
7.9964635372161865,362,0.0,30.0,4.0
8.0019371509552,158,0.0,30.0,4.0
8.017579793930054,847,0.0,30.0,4.0
8.025859594345093,93,0.0,30.0,4.0
8.035156488418579,456,0.0,30.0,4.0
8.047223329544067,0,0.0,30.0,4.0
8.056583166122437,793,0.0,30.0,4.0
8.066860914230347,406,0.0,30.0,4.0
8.079109191894531,978,0.0,30.0,4.0
8.086578130722046,208,0.0,30.0,4.0
8.096879005432129,721,0.0,30.0,4.0
8.102643251419067,354,0.0,30.0,4.0
8.116971015930176,1134,0.0,30.0,4.0
8.118983507156372,592,0.0,30.0,4.0
8.136194467544556,891,0.0,30.0,4.0
8.147612571716309,320,0.0,30.0,4.0
8.155559301376343,525,0.0,30.0,4.0
8.163448333740234,326,0.0,30.0,4.0
8.177611827850342,957,0.0,30.0,4.0
8.186543464660645,129,0.0,30.0,4.0
8.193760395050049,1091,0.0,30.0,4.0
8.202693462371826,256,0.0,30.0,4.0
8.217432737350464,1293,0.0,30.0,4.0
8.225003957748413,594,0.0,30.0,4.0
8.235825777053833,1142,0.0,30.0,4.0
8.247518062591553,323,0.0,30.0,4.0
8.25520396232605,639,0.0,30.0,4.0
8.266839504241943,378,0.0,30.0,4.0
8.277570247650146,1285,0.0,30.0,4.0
8.285959243774414,48,0.0,30.0,4.0
8.297504663467407,1307,0.0,30.0,4.0
8.306206941604614,306,0.0,30.0,4.0
8.316831588745117,1357,0.0,30.0,4.0
8.324279546737671,582,0.0,30.0,4.0
8.334746360778809,1329,0.0,30.0,4.0
8.347679853439331,357,0.0,30.0,4.0
8.35497784614563,652,0.0,30.0,4.0
8.366698503494263,374,0.0,30.0,4.0
8.376965522766113,1463,0.0,30.0,4.0
8.38724136352539,699,0.0,30.0,4.0
8.396812200546265,1527,0.0,30.0,4.0
8.407408237457275,386,0.0,30.0,4.0
8.417259931564331,1486,0.0,30.0,4.0
8.427009582519531,690,0.0,30.0,4.0
8.43337631225586,1657,0.0,30.0,4.0
8.445895195007324,481,0.0,30.0,4.0
8.457274675369263,1007,0.0,30.0,4.0
8.466956853866577,546,0.0,30.0,4.0
8.47465181350708,1047,0.0,30.0,4.0
8.486823320388794,887,0.0,30.0,4.0
8.49429988861084,1625,0.0,30.0,4.0
8.507472276687622,435,0.0,30.0,4.0
8.51743769645691,1377,0.0,30.0,4.0
8.525594472885132,566,0.0,30.0,4.0
8.537320613861084,1598,0.0,30.0,4.0
8.543062448501587,383,0.0,30.0,4.0
8.557002067565918,1486,0.0,30.0,4.0
8.567383766174316,489,0.0,30.0,4.0
8.577543020248413,2071,0.0,30.0,4.0
8.586549997329712,1023,0.0,30.0,4.0
8.593856811523438,1787,0.0,30.0,4.0
8.607295751571655,603,0.0,30.0,4.0
8.616963863372803,1120,0.0,30.0,4.0
8.62387728691101,631,0.0,30.0,4.0
8.634434938430786,1943,0.0,30.0,4.0
8.647599697113037,352,0.0,30.0,4.0
8.655380725860596,1633,0.0,30.0,4.0
8.666727066040039,527,0.0,30.0,4.0
8.677278280258179,1935,0.0,30.0,4.0
8.68460488319397,1083,0.0,30.0,4.0
8.695565700531006,1693,0.0,30.0,4.0
8.7072434425354,752,0.0,30.0,4.0
8.716889142990112,929,0.0,30.0,4.0
8.72641396522522,701,0.0,30.0,4.0
8.738085746765137,1372,0.0,30.0,4.0
8.74756121635437,308,0.0,30.0,4.0
8.757169485092163,1092,0.0,30.0,4.0
8.767372131347656,606,0.0,30.0,4.0
8.777138948440552,927,0.0,30.0,4.0
8.786425352096558,976,0.0,30.0,4.0
8.79349422454834,1623,0.0,30.0,4.0
8.806937456130981,1294,0.0,30.0,4.0
8.816777467727661,1917,0.0,30.0,4.0
8.82775092124939,1406,0.0,30.0,4.0
8.837960481643677,1702,0.0,30.0,4.0
8.847182750701904,1642,0.0,30.0,4.0
8.853950262069702,2225,0.0,30.0,4.0
8.867360353469849,1328,0.0,30.0,4.0
8.87700605392456,1275,0.0,30.0,4.0
8.887192010879517,1557,0.0,30.0,4.0
8.89327073097229,235,0.0,30.0,4.0
8.906763792037964,1092,0.0,30.0,4.0
8.916754961013794,235,0.0,30.0,4.0
8.92303991317749,1402,0.0,30.0,4.0
8.937632083892822,176,0.0,30.0,4.0
8.947739124298096,1583,0.0,30.0,4.0
8.953859329223633,207,0.0,30.0,4.0
8.966764450073242,1477,0.0,30.0,4.0
8.97675085067749,169,0.0,30.0,4.0
8.984765529632568,1630,0.0,30.0,4.0
8.993226289749146,155,0.0,30.0,4.0
9.007735013961792,1261,0.0,30.0,4.0
9.017669200897217,202,0.0,30.0,4.0
9.022835493087769,1619,0.0,30.0,4.0
9.037383556365967,185,0.0,30.0,4.0
9.045883178710938,1557,0.0,30.0,4.0
9.054140567779541,274,0.0,30.0,4.0
9.061355829238892,1727,0.0,30.0,4.0
9.076534509658813,268,0.0,30.0,4.0
9.08534026145935,1827,0.0,30.0,4.0
9.096471548080444,256,0.0,30.0,4.0
9.107420682907104,1504,0.0,30.0,4.0
9.117861986160278,303,0.0,30.0,4.0
9.121531248092651,1810,0.0,30.0,4.0
9.137080192565918,310,0.0,30.0,4.0
9.147667407989502,1398,0.0,30.0,4.0
9.153328657150269,315,0.0,30.0,4.0
9.16773533821106,1802,0.0,30.0,4.0
9.177519083023071,325,0.0,30.0,4.0
9.185311317443848,1667,0.0,30.0,4.0
9.192807912826538,323,0.0,30.0,4.0
9.20710563659668,1739,0.0,30.0,4.0
9.217558860778809,368,0.0,30.0,4.0
9.223422050476074,1544,0.0,30.0,4.0
9.237515926361084,356,0.0,30.0,4.0
9.246405839920044,799,0.0,30.0,4.0
9.253544330596924,343,0.0,30.0,4.0
9.26772165298462,1488,0.0,30.0,4.0
9.277141094207764,378,0.0,30.0,4.0
9.287835121154785,1313,0.0,30.0,4.0
9.291602611541748,386,0.0,30.0,4.0
9.30703067779541,1367,0.0,30.0,4.0
9.317596197128296,447,0.0,30.0,4.0
9.322226524353027,1741,0.0,30.0,4.0
9.337632894515991,422,0.0,30.0,4.0
9.346789836883545,1750,0.0,30.0,4.0
9.35306453704834,395,0.0,30.0,4.0
9.367713451385498,1269,0.0,30.0,4.0
9.376596689224243,428,0.0,30.0,4.0
9.386916637420654,752,0.0,30.0,4.0
9.398151397705078,431,0.0,30.0,4.0
9.406962633132935,1454,0.0,30.0,4.0
9.417484045028687,506,0.0,30.0,4.0
9.422948837280273,1153,0.0,30.0,4.0
9.437642335891724,454,0.0,30.0,4.0
9.446332931518555,973,0.0,30.0,4.0
9.45365858078003,432,0.0,30.0,4.0
9.467136144638062,923,0.0,30.0,4.0
9.477691411972046,494,0.0,30.0,4.0
9.486777544021606,886,0.0,30.0,4.0
9.498079299926758,485,0.0,30.0,4.0
9.50745177268982,1143,0.0,30.0,4.0
9.513163805007935,505,0.0,30.0,4.0
9.522868871688843,998,0.0,30.0,4.0
9.537219285964966,503,0.0,30.0,4.0
9.545589208602905,975,0.0,30.0,4.0
9.557586431503296,419,0.0,30.0,4.0
9.567529201507568,1379,0.0,30.0,4.0
9.57693862915039,379,0.0,30.0,4.0
9.586751222610474,1411,0.0,30.0,4.0
9.597134590148926,369,0.0,30.0,4.0
9.607132911682129,1437,0.0,30.0,4.0
9.617597579956055,528,0.0,30.0,4.0
9.62737488746643,1409,0.0,30.0,4.0
9.637287855148315,573,0.0,30.0,4.0
9.646772861480713,1267,0.0,30.0,4.0
9.657252311706543,576,0.0,30.0,4.0
9.667335748672485,1437,0.0,30.0,4.0
9.675344705581665,687,0.0,30.0,4.0
9.68231987953186,1258,0.0,30.0,4.0
9.696956634521484,625,0.0,30.0,4.0
9.707494020462036,1264,0.0,30.0,4.0
9.716980457305908,606,0.0,30.0,4.0
9.72665548324585,1445,0.0,30.0,4.0
9.737354040145874,674,0.0,30.0,4.0
9.747762441635132,1313,0.0,30.0,4.0
9.756788492202759,666,0.0,30.0,4.0
9.767601490020752,1547,0.0,30.0,4.0
9.774600744247437,729,0.0,30.0,4.0
9.785010576248169,1428,0.0,30.0,4.0
9.797116756439209,714,0.0,30.0,4.0
9.805700063705444,1405,0.0,30.0,4.0
9.817520141601562,683,0.0,30.0,4.0
9.822168111801147,1574,0.0,30.0,4.0
9.83645224571228,755,0.0,30.0,4.0
9.845181226730347,1515,0.0,30.0,4.0
9.852304220199585,753,0.0,30.0,4.0
9.867271661758423,1780,0.0,30.0,4.0
9.87589406967163,852,0.0,30.0,4.0
9.885638952255249,1481,0.0,30.0,4.0
9.897097826004028,847,0.0,30.0,4.0
9.905748844146729,1296,0.0,30.0,4.0
9.917584896087646,866,0.0,30.0,4.0
9.927948951721191,1424,0.0,30.0,4.0
9.936384677886963,948,0.0,30.0,4.0
9.944168090820312,1332,0.0,30.0,4.0
9.957055807113647,989,0.0,30.0,4.0
9.967089414596558,1487,0.0,30.0,4.0
9.97479248046875,1040,0.0,30.0,4.0
9.986518859863281,1344,0.0,30.0,4.0
9.99737811088562,1091,0.0,30.0,4.0
10.007701873779297,1202,0.0,30.0,4.0
10.01719069480896,1123,0.0,30.0,4.0
10.027374982833862,877,0.0,30.0,4.0
10.037593603134155,1195,0.0,30.0,4.0
10.039587020874023,0,0.0,30.0,4.0
10.057353019714355,1183,0.0,30.0,4.0
10.066563367843628,0,0.0,30.0,4.0
10.068559885025024,1180,0.0,30.0,4.0
10.085182666778564,0,0.0,30.0,4.0
10.097456216812134,1245,0.0,30.0,4.0
10.107540130615234,0,0.0,30.0,4.0
10.117517948150635,1271,0.0,30.0,4.0
10.127633333206177,0,0.0,30.0,4.0
10.135343074798584,1285,0.0,30.0,4.0
10.147831916809082,0,0.0,30.0,4.0
10.15783953666687,1330,0.0,30.0,4.0
10.168006181716919,0,0.0,30.0,4.0
10.16999888420105,1360,0.0,30.0,4.0
10.18005084991455,0,0.0,30.0,4.0
10.1911141872406,1413,0.0,30.0,4.0
10.202055215835571,692,0.0,30.0,4.0
10.2136549949646,1456,0.0,30.0,4.0
10.220235109329224,779,0.0,30.0,4.0
10.231529712677002,1447,0.0,30.0,4.0
10.247753620147705,598,0.0,30.0,4.0
10.257946729660034,1482,0.0,30.0,4.0
10.257946729660034,1067,0.0,30.0,4.0
10.276980638504028,1485,0.0,30.0,4.0
10.287078619003296,1173,0.0,30.0,4.0
10.289865970611572,1518,0.0,30.0,4.0
10.304884195327759,1139,0.0,30.0,4.0
10.312533855438232,1531,0.0,30.0,4.0
10.320231914520264,1535,0.0,30.0,4.0
10.334579229354858,1573,0.0,30.0,4.0
10.343344926834106,1593,0.0,30.0,4.0
10.357851028442383,1698,0.0,30.0,4.0
10.367398023605347,0,0.0,30.0,4.0
10.374019861221313,1776,0.0,30.0,4.0
10.384188413619995,0,0.0,30.0,4.0
10.396997690200806,1873,0.0,30.0,4.0
10.405746221542358,0,0.0,30.0,4.0
10.417394161224365,1865,0.0,30.0,4.0
10.427716732025146,1040,0.0,30.0,4.0
10.437860488891602,1866,0.0,30.0,4.0
10.442983150482178,0,0.0,30.0,4.0
10.457621097564697,1941,0.0,30.0,4.0
10.46701192855835,0,0.0,30.0,4.0
10.474702835083008,1968,0.0,30.0,4.0
10.485132455825806,0,0.0,30.0,4.0
10.49674654006958,2061,0.0,30.0,4.0
10.504448890686035,0,0.0,30.0,4.0
10.517467498779297,2129,0.0,30.0,4.0
10.527428150177002,1376,0.0,30.0,4.0
10.536470651626587,2013,0.0,30.0,4.0
10.546316385269165,0,0.0,30.0,4.0
10.557273626327515,2149,0.0,30.0,4.0
10.567027807235718,0,0.0,30.0,4.0
10.574463129043579,2177,0.0,30.0,4.0
10.585557222366333,0,0.0,30.0,4.0
10.596639633178711,2207,0.0,30.0,4.0
10.606274127960205,0,0.0,30.0,4.0
10.616970777511597,2210,0.0,30.0,4.0
10.627338647842407,0,0.0,30.0,4.0
10.63548731803894,2185,0.0,30.0,4.0
10.644540309906006,2318,0.0,30.0,4.0
10.656956434249878,2239,0.0,30.0,4.0
10.667355298995972,2277,0.0,30.0,4.0
10.674230575561523,2224,0.0,30.0,4.0
10.688039541244507,2353,0.0,30.0,4.0
10.69736623764038,2231,0.0,30.0,4.0
10.708196640014648,2352,0.0,30.0,4.0
10.717437505722046,2347,0.0,30.0,4.0
10.727440595626831,2265,0.0,30.0,4.0
10.73770546913147,2335,0.0,30.0,4.0
10.745809316635132,2559,0.0,30.0,4.0
10.75739073753357,2431,0.0,30.0,4.0
10.766976833343506,2528,0.0,30.0,4.0
10.777347087860107,2461,0.0,30.0,4.0
10.787771224975586,2532,0.0,30.0,4.0
10.79806637763977,2458,0.0,30.0,4.0
10.807341575622559,2501,0.0,30.0,4.0
10.817448139190674,2494,0.0,30.0,4.0
10.827335834503174,2398,0.0,30.0,4.0
10.834468841552734,2469,0.0,30.0,4.0
10.843462228775024,2477,0.0,30.0,4.0
10.857574701309204,2640,0.0,30.0,4.0
10.86751103401184,2548,0.0,30.0,4.0
10.873918533325195,2699,0.0,30.0,4.0
10.886058330535889,2553,0.0,30.0,4.0
10.897589683532715,2688,0.0,30.0,4.0
10.903584241867065,2527,0.0,30.0,4.0
10.916910409927368,2768,0.0,30.0,4.0
10.92667007446289,2575,0.0,30.0,4.0
10.936331272125244,2775,0.0,30.0,4.0
10.943024158477783,2299,0.0,30.0,4.0
10.957628965377808,2868,0.0,30.0,4.0
10.96746826171875,2446,0.0,30.0,4.0
10.974750518798828,2864,0.0,30.0,4.0
10.987276077270508,2537,0.0,30.0,4.0
10.99731993675232,2813,0.0,30.0,4.0
11.00348711013794,2140,0.0,30.0,4.0
11.017820835113525,2943,0.0,30.0,4.0
11.027399778366089,935,0.0,30.0,4.0
11.036275863647461,2901,0.0,30.0,4.0
11.042713403701782,0,0.0,30.0,4.0
11.057350158691406,2830,0.0,30.0,4.0
11.067291736602783,0,0.0,30.0,4.0
11.072467565536499,2769,0.0,30.0,4.0
11.086902618408203,414,0.0,30.0,4.0
11.096845865249634,2708,0.0,30.0,4.0
11.103450536727905,0,0.0,30.0,4.0
11.117882013320923,2405,0.0,30.0,4.0
11.126884937286377,0,0.0,30.0,4.0
11.135551452636719,2151,0.0,30.0,4.0
11.141830444335938,0,0.0,30.0,4.0
11.153205633163452,1535,0.0,30.0,4.0
11.167516469955444,0,0.0,30.0,4.0
11.172404050827026,0,0.0,30.0,4.0
11.187651634216309,0,0.0,30.0,4.0
11.195338726043701,0,0.0,30.0,4.0
11.20684814453125,0,0.0,30.0,4.0
11.217926502227783,0,0.0,30.0,4.0
11.22702932357788,0,0.0,30.0,4.0
11.235712051391602,0,0.0,30.0,4.0
11.246890544891357,0,0.0,30.0,4.0
11.257506608963013,0,0.0,30.0,4.0
11.268396615982056,0,0.0,30.0,4.0
11.277308940887451,0,0.0,30.0,4.0
11.287227153778076,0,0.0,30.0,4.0
11.297633409500122,0,0.0,30.0,4.0
11.306968688964844,0,0.0,30.0,4.0
11.316876649856567,0,0.0,30.0,4.0
11.327139616012573,0,0.0,30.0,4.0
11.33729076385498,0,0.0,30.0,4.0
11.346489906311035,0,0.0,30.0,4.0
11.357535600662231,0,0.0,30.0,4.0
11.367266654968262,0,0.0,30.0,4.0
11.376953840255737,0,0.0,30.0,4.0
11.386737823486328,0,0.0,30.0,4.0
11.395908832550049,0,0.0,30.0,4.0
11.405465126037598,0,0.0,30.0,4.0
11.417181968688965,0,0.0,30.0,4.0
11.426540851593018,0,0.0,30.0,4.0
11.435268878936768,0,0.0,30.0,4.0
11.44193720817566,0,0.0,30.0,4.0
11.45696210861206,0,0.0,30.0,4.0
11.467303991317749,0,0.0,30.0,4.0
11.472665071487427,0,0.0,30.0,4.0
11.486984968185425,0,0.0,30.0,4.0
11.494244575500488,0,0.0,30.0,4.0
11.502452850341797,0,0.0,30.0,4.0
11.517285108566284,0,0.0,30.0,4.0
11.527176856994629,0,0.0,30.0,4.0
11.53624176979065,0,0.0,30.0,4.0
11.544686317443848,0,0.0,30.0,4.0
11.557169437408447,0,0.0,30.0,4.0
11.566816568374634,0,0.0,30.0,4.0
11.573378324508667,0,0.0,30.0,4.0
11.587007284164429,0,0.0,30.0,4.0
11.59553337097168,0,0.0,30.0,4.0
11.603340148925781,0,0.0,30.0,4.0
11.61733341217041,0,0.0,30.0,4.0
11.626844644546509,0,0.0,30.0,4.0
11.637349367141724,0,0.0,30.0,4.0
11.64730191230774,0,0.0,30.0,4.0
11.656026601791382,0,0.0,30.0,4.0
11.666778326034546,0,0.0,30.0,4.0
11.672261953353882,0,0.0,30.0,4.0
11.686994075775146,0,0.0,30.0,4.0
11.697577476501465,0,0.0,30.0,4.0
11.702117443084717,0,0.0,30.0,4.0
11.717426300048828,0,0.0,30.0,4.0
11.726797342300415,0,0.0,30.0,4.0
11.735481977462769,0,0.0,30.0,4.0
11.747344732284546,0,0.0,30.0,4.0
11.756853342056274,0,0.0,30.0,4.0
11.766815900802612,31,0.0,30.0,4.0
11.774358034133911,0,0.0,30.0,4.0
11.787073612213135,0,0.0,30.0,4.0
11.797443866729736,0,0.0,30.0,4.0
11.801471948623657,0,0.0,30.0,4.0
11.816804647445679,0,0.0,30.0,4.0
11.826889991760254,0,0.0,30.0,4.0
11.837311744689941,0,0.0,30.0,4.0
11.84109354019165,0,0.0,30.0,4.0
11.856936931610107,0,0.0,30.0,4.0
11.866769075393677,0,0.0,30.0,4.0
11.877260684967041,0,0.0,30.0,4.0
11.886684656143188,0,0.0,30.0,4.0
11.896954774856567,0,0.0,30.0,4.0
11.90697193145752,0,0.0,30.0,4.0
11.917028903961182,0,0.0,30.0,4.0
11.927650928497314,25,0.0,30.0,4.0
11.937584638595581,0,0.0,30.0,4.0
11.947649717330933,25,0.0,30.0,4.0
11.957538604736328,0,0.0,30.0,4.0
11.967305898666382,32,0.0,30.0,4.0
11.976832866668701,0,0.0,30.0,4.0
11.987149000167847,0,0.0,30.0,4.0
11.997177839279175,0,0.0,30.0,4.0
12.006680727005005,0,0.0,30.0,4.0
12.016743421554565,0,0.0,30.0,4.0
12.026807308197021,0,0.0,30.0,4.0
12.037163496017456,0,0.0,30.0,4.0
12.046638250350952,0,0.0,30.0,4.0
12.056769609451294,0,0.0,30.0,4.0
12.066668510437012,0,0.0,30.0,4.0
12.077193975448608,0,0.0,30.0,4.0
12.085967540740967,0,0.0,30.0,4.0
12.094423770904541,0,0.0,30.0,4.0
12.10587215423584,0,0.0,30.0,4.0
12.116508483886719,0,0.0,30.0,4.0
12.12561583518982,0,0.0,30.0,4.0
12.13383674621582,0,0.0,30.0,4.0
12.147281169891357,0,0.0,30.0,4.0
12.155913591384888,0,0.0,30.0,4.0
12.16362714767456,0,0.0,30.0,4.0
12.177006244659424,0,0.0,30.0,4.0
12.186001300811768,0,0.0,30.0,4.0
12.193295955657959,0,0.0,30.0,4.0
12.201974153518677,0,0.0,30.0,4.0
12.216373205184937,0,0.0,30.0,4.0
12.224118947982788,0,0.0,30.0,4.0
12.232812881469727,0,0.0,30.0,4.0
12.24740719795227,0,0.0,30.0,4.0
12.256727457046509,0,0.0,30.0,4.0
12.26739764213562,0,0.0,30.0,4.0
12.276838779449463,0,0.0,30.0,4.0
12.287435054779053,0,0.0,30.0,4.0
12.297841310501099,0,0.0,30.0,4.0
12.30513072013855,0,0.0,30.0,4.0
12.31619906425476,0,0.0,30.0,4.0
12.32481575012207,0,0.0,30.0,4.0
12.331564903259277,0,0.0,30.0,4.0
12.34666109085083,0,0.0,30.0,4.0
12.357286930084229,0,0.0,30.0,4.0
12.367437839508057,0,0.0,30.0,4.0
12.37660837173462,0,0.0,30.0,4.0
12.383776426315308,0,0.0,30.0,4.0
12.392950534820557,0,0.0,30.0,4.0
12.40754508972168,0,0.0,30.0,4.0
12.416601657867432,0,0.0,30.0,4.0
12.423701286315918,0,0.0,30.0,4.0
12.433746576309204,0,0.0,30.0,4.0
12.446513175964355,0,0.0,30.0,4.0
12.455828189849854,0,0.0,30.0,4.0
12.466603994369507,0,0.0,30.0,4.0
12.477028369903564,0,0.0,30.0,4.0
12.486774444580078,29,0.0,30.0,4.0
12.497331857681274,0,0.0,30.0,4.0
12.506717681884766,0,0.0,30.0,4.0
12.516621112823486,0,0.0,30.0,4.0
12.527642488479614,32,0.0,30.0,4.0
12.53683590888977,0,0.0,30.0,4.0
12.547315120697021,10,0.0,30.0,4.0
12.555980205535889,0,0.0,30.0,4.0
12.566025733947754,0,0.0,30.0,4.0
12.577581882476807,0,0.0,30.0,4.0
12.58702802658081,0,0.0,30.0,4.0
12.59708857536316,0,0.0,30.0,4.0
12.606818199157715,0,0.0,30.0,4.0
12.61681604385376,0,0.0,30.0,4.0
12.627350807189941,0,0.0,30.0,4.0
12.636872053146362,0,0.0,30.0,4.0
12.646923065185547,0,0.0,30.0,4.0
12.654585838317871,0,0.0,30.0,4.0
12.667039632797241,0,0.0,30.0,4.0
12.676899194717407,0,0.0,30.0,4.0
12.684651613235474,0,0.0,30.0,4.0
12.69318151473999,0,0.0,30.0,4.0
12.706722736358643,0,0.0,30.0,4.0
12.717344760894775,0,0.0,30.0,4.0
12.723998546600342,0,0.0,30.0,4.0
12.737542152404785,0,0.0,30.0,4.0
12.746102094650269,0,0.0,30.0,4.0
12.753810167312622,0,0.0,30.0,4.0
12.7624990940094,0,0.0,30.0,4.0
12.777037143707275,0,0.0,30.0,4.0
12.784565925598145,0,0.0,30.0,4.0
12.793261289596558,31,0.0,30.0,4.0
12.80756688117981,158,0.0,30.0,4.0
12.816767454147339,0,0.0,30.0,4.0
12.823842763900757,129,0.0,30.0,4.0
12.837273836135864,0,0.0,30.0,4.0
12.845846891403198,175,0.0,30.0,4.0
12.857292413711548,0,0.0,30.0,4.0
12.860168933868408,161,0.0,30.0,4.0
12.876888751983643,0,0.0,30.0,4.0
12.884913921356201,145,0.0,30.0,4.0
12.89339542388916,0,0.0,30.0,4.0
12.907230615615845,250,0.0,30.0,4.0
12.91687822341919,0,0.0,30.0,4.0
12.922569751739502,246,0.0,30.0,4.0
12.936931371688843,0,0.0,30.0,4.0
12.945603847503662,331,0.0,30.0,4.0
12.956776142120361,0,0.0,30.0,4.0
12.966712951660156,261,0.0,30.0,4.0
12.977286100387573,0,0.0,30.0,4.0
12.985103845596313,94,0.0,30.0,4.0
12.992769956588745,0,0.0,30.0,4.0
13.007022142410278,233,0.0,30.0,4.0
13.01682162284851,0,0.0,30.0,4.0
13.023369312286377,166,0.0,30.0,4.0
13.03684949874878,0,0.0,30.0,4.0
13.046313762664795,0,0.0,30.0,4.0
13.057560443878174,0,0.0,30.0,4.0
13.067053079605103,0,0.0,30.0,4.0
13.077066421508789,0,0.0,30.0,4.0
13.08575177192688,0,0.0,30.0,4.0
13.093503713607788,49,0.0,30.0,4.0
13.106854677200317,0,0.0,30.0,4.0
13.116809606552124,0,0.0,30.0,4.0
13.123122215270996,0,0.0,30.0,4.0
13.13749098777771,0,0.0,30.0,4.0
13.145219326019287,0,0.0,30.0,4.0
13.15408706665039,176,0.0,30.0,4.0
13.167255878448486,0,0.0,30.0,4.0
13.176896333694458,19,0.0,30.0,4.0
13.186957597732544,0,0.0,30.0,4.0
13.198083639144897,46,0.0,30.0,4.0
13.20881462097168,0,0.0,30.0,4.0
13.217164278030396,0,0.0,30.0,4.0
13.222929239273071,0,0.0,30.0,4.0
13.23744511604309,0,0.0,30.0,4.0
13.247548341751099,0,0.0,30.0,4.0
13.253196001052856,0,0.0,30.0,4.0
13.267095804214478,0,0.0,30.0,4.0
13.276749610900879,0,0.0,30.0,4.0
13.285252332687378,0,0.0,30.0,4.0
13.298032760620117,86,0.0,30.0,4.0
13.307451963424683,0,0.0,30.0,4.0
13.315946340560913,0,0.0,30.0,4.0
13.322743892669678,0,0.0,30.0,4.0
13.33720326423645,123,0.0,30.0,4.0
13.346994161605835,0,0.0,30.0,4.0
13.352789163589478,209,0.0,30.0,4.0
13.367444038391113,0,0.0,30.0,4.0
13.375463485717773,93,0.0,30.0,4.0
13.387917280197144,0,0.0,30.0,4.0
13.39792513847351,106,0.0,30.0,4.0
13.407172203063965,0,0.0,30.0,4.0
13.417377948760986,0,0.0,30.0,4.0
13.42353630065918,0,0.0,30.0,4.0
13.437003374099731,24,0.0,30.0,4.0
13.445597648620605,58,0.0,30.0,4.0
13.452969789505005,195,0.0,30.0,4.0
13.466797828674316,0,0.0,30.0,4.0
13.476227045059204,49,0.0,30.0,4.0
13.485979795455933,0,0.0,30.0,4.0
13.497740268707275,138,0.0,30.0,4.0
13.507017374038696,0,0.0,30.0,4.0
13.51715350151062,256,0.0,30.0,4.0
13.525753498077393,0,0.0,30.0,4.0
13.536861419677734,168,0.0,30.0,4.0
13.547100305557251,455,0.0,30.0,4.0
13.557712078094482,0,0.0,30.0,4.0
13.567439317703247,591,0.0,30.0,4.0
13.576708316802979,0,0.0,30.0,4.0
13.584781169891357,0,0.0,30.0,4.0
13.597477912902832,0,0.0,30.0,4.0
13.60585331916809,518,0.0,30.0,4.0
13.617538213729858,112,0.0,30.0,4.0
13.629439115524292,554,0.0,30.0,4.0
13.636555433273315,1,0.0,30.0,4.0
13.64688229560852,240,0.0,30.0,4.0
13.657192707061768,35,0.0,30.0,4.0
13.666786432266235,576,0.0,30.0,4.0
13.6753249168396,0,0.0,30.0,4.0
13.68700122833252,0,0.0,30.0,4.0
13.698103904724121,11,0.0,30.0,4.0
13.706695556640625,592,0.0,30.0,4.0
13.71654748916626,178,0.0,30.0,4.0
13.726978063583374,707,0.0,30.0,4.0
13.732123851776123,49,0.0,30.0,4.0
13.742727756500244,618,0.0,30.0,4.0
13.757244110107422,62,0.0,30.0,4.0
13.76731014251709,1047,0.0,30.0,4.0
13.776690483093262,243,0.0,30.0,4.0
13.787208080291748,917,0.0,30.0,4.0
13.797547101974487,79,0.0,30.0,4.0
13.807337760925293,713,0.0,30.0,4.0
13.817593336105347,270,0.0,30.0,4.0
13.827272415161133,1168,0.0,30.0,4.0
13.837992668151855,179,0.0,30.0,4.0
13.84364652633667,1028,0.0,30.0,4.0
13.855071544647217,194,0.0,30.0,4.0
13.866911888122559,1079,0.0,30.0,4.0
13.874389886856079,650,0.0,30.0,4.0
13.88622760772705,881,0.0,30.0,4.0
13.897419929504395,290,0.0,30.0,4.0
13.907124519348145,635,0.0,30.0,4.0
13.917120218276978,378,0.0,30.0,4.0
13.927181720733643,754,0.0,30.0,4.0
13.93580937385559,92,0.0,30.0,4.0
13.946624755859375,587,0.0,30.0,4.0
13.957936763763428,141,0.0,30.0,4.0
13.96789288520813,1457,0.0,30.0,4.0
13.975849628448486,541,0.0,30.0,4.0
13.986237049102783,1296,0.0,30.0,4.0
13.997325420379639,133,0.0,30.0,4.0
14.00501275062561,565,0.0,30.0,4.0
14.017948627471924,302,0.0,30.0,4.0
14.027124643325806,1187,0.0,30.0,4.0
14.035765886306763,511,0.0,30.0,4.0
14.04519271850586,1334,0.0,30.0,4.0
14.057655096054077,343,0.0,30.0,4.0
14.067250490188599,1402,0.0,30.0,4.0
14.075053930282593,645,0.0,30.0,4.0
14.084930181503296,1283,0.0,30.0,4.0
14.097113370895386,383,0.0,30.0,4.0
14.104837656021118,1339,0.0,30.0,4.0
14.117153882980347,485,0.0,30.0,4.0
14.127729892730713,1842,0.0,30.0,4.0
14.135627746582031,668,0.0,30.0,4.0
14.143419027328491,1488,0.0,30.0,4.0
14.157789945602417,315,0.0,30.0,4.0
14.166630983352661,1295,0.0,30.0,4.0
14.177150964736938,583,0.0,30.0,4.0
14.187676906585693,1364,0.0,30.0,4.0
14.197409391403198,422,0.0,30.0,4.0
14.204822301864624,1453,0.0,30.0,4.0
14.217562913894653,489,0.0,30.0,4.0
14.2268648147583,816,0.0,30.0,4.0
14.235215663909912,894,0.0,30.0,4.0
14.243963718414307,1671,0.0,30.0,4.0
14.25872015953064,375,0.0,30.0,4.0
14.267310619354248,1215,0.0,30.0,4.0
14.274631261825562,613,0.0,30.0,4.0
14.28821325302124,1693,0.0,30.0,4.0
14.297794103622437,343,0.0,30.0,4.0
14.307835817337036,1525,0.0,30.0,4.0
14.31748628616333,432,0.0,30.0,4.0
14.327452421188354,1649,0.0,30.0,4.0
14.335236310958862,1138,0.0,30.0,4.0
14.343847036361694,1375,0.0,30.0,4.0
14.35726523399353,651,0.0,30.0,4.0
14.367879152297974,1065,0.0,30.0,4.0
14.37447452545166,784,0.0,30.0,4.0
14.388126850128174,1600,0.0,30.0,4.0
14.397680282592773,379,0.0,30.0,4.0
14.404171228408813,1253,0.0,30.0,4.0
14.416746377944946,623,0.0,30.0,4.0
14.426970481872559,917,0.0,30.0,4.0
14.435808897018433,1098,0.0,30.0,4.0
14.445814847946167,1593,0.0,30.0,4.0
14.456824779510498,707,0.0,30.0,4.0
14.46777868270874,1137,0.0,30.0,4.0
14.473145961761475,665,0.0,30.0,4.0
14.488044500350952,1472,0.0,30.0,4.0
14.49744701385498,908,0.0,30.0,4.0
14.503990411758423,1467,0.0,30.0,4.0
14.516916513442993,717,0.0,30.0,4.0
14.527912616729736,1005,0.0,30.0,4.0
14.537667274475098,914,0.0,30.0,4.0
14.54330039024353,2112,0.0,30.0,4.0
14.557625770568848,670,0.0,30.0,4.0
14.566677808761597,1670,0.0,30.0,4.0
14.575068712234497,732,0.0,30.0,4.0
14.587681531906128,1245,0.0,30.0,4.0
14.597670793533325,1289,0.0,30.0,4.0
14.60473918914795,1574,0.0,30.0,4.0
14.617494821548462,1251,0.0,30.0,4.0
14.62781572341919,945,0.0,30.0,4.0
14.63558292388916,1546,0.0,30.0,4.0
14.643551588058472,1392,0.0,30.0,4.0
14.657556295394897,984,0.0,30.0,4.0
14.666995525360107,1402,0.0,30.0,4.0
14.672873258590698,1265,0.0,30.0,4.0
14.687548875808716,1085,0.0,30.0,4.0
14.696866035461426,1498,0.0,30.0,4.0
14.70281434059143,2026,0.0,30.0,4.0
14.717995166778564,791,0.0,30.0,4.0
14.727663516998291,1642,0.0,30.0,4.0
14.73423981666565,1019,0.0,30.0,4.0
14.744893550872803,1601,0.0,30.0,4.0
14.757437944412231,592,0.0,30.0,4.0
14.767228841781616,1744,0.0,30.0,4.0
14.772756576538086,990,0.0,30.0,4.0
14.78838586807251,1239,0.0,30.0,4.0
14.797186851501465,1362,0.0,30.0,4.0
14.803399562835693,2297,0.0,30.0,4.0
14.817736864089966,1072,0.0,30.0,4.0
14.827514886856079,1500,0.0,30.0,4.0
14.837912797927856,1264,0.0,30.0,4.0
14.842125177383423,1531,0.0,30.0,4.0
14.856780767440796,595,0.0,30.0,4.0
14.867567539215088,2214,0.0,30.0,4.0
14.872453451156616,1104,0.0,30.0,4.0
14.886941194534302,1638,0.0,30.0,4.0
14.895528793334961,1381,0.0,30.0,4.0
14.903165340423584,2243,0.0,30.0,4.0
14.91788935661316,1203,0.0,30.0,4.0
14.927312135696411,1342,0.0,30.0,4.0
14.933802127838135,1353,0.0,30.0,4.0
14.946510791778564,1727,0.0,30.0,4.0
14.957545757293701,1292,0.0,30.0,4.0
14.96724009513855,2304,0.0,30.0,4.0
14.977548837661743,1118,0.0,30.0,4.0
14.987532615661621,1751,0.0,30.0,4.0
14.997391700744629,1353,0.0,30.0,4.0
15.007834434509277,1617,0.0,30.0,4.0
15.017047643661499,1264,0.0,30.0,4.0
15.02765417098999,2035,0.0,30.0,4.0
15.037158727645874,1374,0.0,30.0,4.0
15.047700881958008,1675,0.0,30.0,4.0
15.056874513626099,1894,0.0,30.0,4.0
15.066890716552734,1519,0.0,30.0,4.0
15.076774835586548,1281,0.0,30.0,4.0
15.087538003921509,1315,0.0,30.0,4.0
15.097198963165283,1403,0.0,30.0,4.0
15.107393026351929,1782,0.0,30.0,4.0
15.117045402526855,1162,0.0,30.0,4.0
15.126796245574951,2102,0.0,30.0,4.0
15.136797428131104,1312,0.0,30.0,4.0
15.147580623626709,1714,0.0,30.0,4.0
15.156981229782104,1641,0.0,30.0,4.0
15.167612552642822,1371,0.0,30.0,4.0
15.177017450332642,1467,0.0,30.0,4.0
15.187405109405518,1488,0.0,30.0,4.0
15.196806907653809,1328,0.0,30.0,4.0
15.206893682479858,1983,0.0,30.0,4.0
15.217447519302368,1330,0.0,30.0,4.0
15.227330207824707,2065,0.0,30.0,4.0
15.236922025680542,1351,0.0,30.0,4.0
15.247243404388428,1664,0.0,30.0,4.0
15.256457090377808,1456,0.0,30.0,4.0
15.266597032546997,417,0.0,30.0,4.0
15.277613401412964,1277,0.0,30.0,4.0
15.28715443611145,1259,0.0,30.0,4.0
15.297580242156982,1289,0.0,30.0,4.0
15.306591749191284,2058,0.0,30.0,4.0
15.317549467086792,208,0.0,30.0,4.0
15.327714204788208,247,0.0,30.0,4.0
15.333924770355225,1926,0.0,30.0,4.0
15.34679365158081,1614,0.0,30.0,4.0
15.357184886932373,1850,0.0,30.0,4.0
15.367509603500366,377,0.0,30.0,4.0
15.377813816070557,2145,0.0,30.0,4.0
15.387796640396118,1573,0.0,30.0,4.0
15.397796869277954,2661,0.0,30.0,4.0
15.40283989906311,1483,0.0,30.0,4.0
15.416480541229248,0,0.0,30.0,4.0
15.426015853881836,1507,0.0,30.0,4.0
15.436879396438599,2470,0.0,30.0,4.0
15.446776628494263,1523,0.0,30.0,4.0
15.45734691619873,2369,0.0,30.0,4.0
15.466368913650513,442,0.0,30.0,4.0
15.471186637878418,143,0.0,30.0,4.0
15.48666763305664,419,0.0,30.0,4.0
15.49675989151001,2240,0.0,30.0,4.0
15.507745265960693,349,0.0,30.0,4.0
15.517338037490845,77,0.0,30.0,4.0
15.52463674545288,167,0.0,30.0,4.0
15.53503966331482,1223,0.0,30.0,4.0
15.539992332458496,368,0.0,30.0,4.0
15.557770729064941,315,0.0,30.0,4.0
15.56775188446045,642,0.0,30.0,4.0
15.576877117156982,677,0.0,30.0,4.0
15.586857557296753,901,0.0,30.0,4.0
15.596881866455078,722,0.0,30.0,4.0
15.607931137084961,955,0.0,30.0,4.0
15.616859436035156,753,0.0,30.0,4.0
15.626874923706055,1008,0.0,30.0,4.0
15.637844800949097,784,0.0,30.0,4.0
15.64785122871399,1063,0.0,30.0,4.0
15.656828165054321,805,0.0,30.0,4.0
15.667791604995728,1132,0.0,30.0,4.0
15.676841259002686,1197,0.0,30.0,4.0
15.686762809753418,1091,0.0,30.0,4.0
15.69772481918335,913,0.0,30.0,4.0
15.706714630126953,1161,0.0,30.0,4.0
15.717707395553589,948,0.0,30.0,4.0
15.726702213287354,1311,0.0,30.0,4.0
15.736746072769165,1550,0.0,30.0,4.0
15.746691465377808,1280,0.0,30.0,4.0
15.748790264129639,945,0.0,30.0,4.0
15.763689994812012,1150,0.0,30.0,4.0
15.776734828948975,1557,0.0,30.0,4.0
15.786757469177246,1216,0.0,30.0,4.0
15.79677700996399,957,0.0,30.0,4.0
15.806744813919067,743,0.0,30.0,4.0
15.81767988204956,1501,0.0,30.0,4.0
15.82677698135376,1356,0.0,30.0,4.0
15.836910724639893,986,0.0,30.0,4.0
15.84733533859253,785,0.0,30.0,4.0
15.85680627822876,1708,0.0,30.0,4.0
15.866780519485474,1422,0.0,30.0,4.0
15.876836061477661,1037,0.0,30.0,4.0
15.88675594329834,1413,0.0,30.0,4.0
15.894441366195679,1178,0.0,30.0,4.0
15.903677463531494,1146,0.0,30.0,4.0
15.916581630706787,1323,0.0,30.0,4.0
15.927630424499512,1046,0.0,30.0,4.0
15.934699773788452,1828,0.0,30.0,4.0
15.947091102600098,79,0.0,30.0,4.0
15.956589221954346,1927,0.0,30.0,4.0
15.967340469360352,121,0.0,30.0,4.0
15.976742267608643,2622,0.0,30.0,4.0
15.986525774002075,2491,0.0,30.0,4.0
15.994136095046997,2640,0.0,30.0,4.0
16.00771188735962,2955,0.0,30.0,4.0
16.017509698867798,2241,0.0,30.0,4.0
16.02775526046753,758,0.0,30.0,4.0
16.03713083267212,911,0.0,30.0,4.0
16.04578423500061,0,0.0,30.0,4.0
16.057968854904175,1625,0.0,30.0,4.0
16.066930532455444,1292,0.0,30.0,4.0
16.07669734954834,878,0.0,30.0,4.0
16.08787989616394,1398,0.0,30.0,4.0
16.0978581905365,880,0.0,30.0,4.0
16.107396364212036,1330,0.0,30.0,4.0
16.117677927017212,1841,0.0,30.0,4.0
16.127901077270508,1060,0.0,30.0,4.0
16.132387399673462,803,0.0,30.0,4.0
16.1477153301239,1267,0.0,30.0,4.0
16.15781545639038,978,0.0,30.0,4.0
16.167799472808838,1296,0.0,30.0,4.0
16.177640914916992,725,0.0,30.0,4.0
16.18784260749817,1326,0.0,30.0,4.0
16.19279193878174,1030,0.0,30.0,4.0
16.206953287124634,1161,0.0,30.0,4.0
16.21575951576233,835,0.0,30.0,4.0
16.22747015953064,1568,0.0,30.0,4.0
16.23778247833252,1089,0.0,30.0,4.0
16.246460914611816,1895,0.0,30.0,4.0
16.256601810455322,1122,0.0,30.0,4.0
16.265316486358643,1264,0.0,30.0,4.0
16.277291297912598,669,0.0,30.0,4.0
16.287805795669556,1311,0.0,30.0,4.0
16.296942472457886,809,0.0,30.0,4.0
16.30683135986328,1316,0.0,30.0,4.0
16.317362308502197,830,0.0,30.0,4.0
16.327987670898438,1230,0.0,30.0,4.0
16.337843656539917,720,0.0,30.0,4.0
16.34756875038147,1626,0.0,30.0,4.0
16.357815980911255,956,0.0,30.0,4.0
16.366917371749878,1246,0.0,30.0,4.0
16.377965927124023,795,0.0,30.0,4.0
16.387749433517456,1170,0.0,30.0,4.0
16.393393993377686,896,0.0,30.0,4.0
16.406785249710083,1201,0.0,30.0,4.0
16.41659450531006,902,0.0,30.0,4.0
16.427837133407593,1306,0.0,30.0,4.0
16.436827182769775,974,0.0,30.0,4.0
16.447784185409546,2299,0.0,30.0,4.0
16.4578115940094,1343,0.0,30.0,4.0
16.467546701431274,1655,0.0,30.0,4.0
16.477599620819092,866,0.0,30.0,4.0
16.485939979553223,1958,0.0,30.0,4.0
16.496885061264038,1482,0.0,30.0,4.0
16.507700204849243,2465,0.0,30.0,4.0
16.517415523529053,1690,0.0,30.0,4.0
16.52297306060791,2094,0.0,30.0,4.0
16.537285804748535,1165,0.0,30.0,4.0
16.54686951637268,2417,0.0,30.0,4.0
16.55366063117981,1973,0.0,30.0,4.0
16.5674991607666,2302,0.0,30.0,4.0
16.577781200408936,944,0.0,30.0,4.0
16.584420919418335,2307,0.0,30.0,4.0
16.596028804779053,1386,0.0,30.0,4.0
16.607523441314697,2303,0.0,30.0,4.0
16.61791443824768,1988,0.0,30.0,4.0
16.627885341644287,2935,0.0,30.0,4.0
16.636894702911377,1978,0.0,30.0,4.0
16.64718198776245,2967,0.0,30.0,4.0
16.65633535385132,1264,0.0,30.0,4.0
16.66782307624817,2234,0.0,30.0,4.0
16.676844835281372,881,0.0,30.0,4.0
16.68713617324829,1824,0.0,30.0,4.0
16.69721484184265,1319,0.0,30.0,4.0
16.70759606361389,1593,0.0,30.0,4.0
16.717702627182007,1233,0.0,30.0,4.0
16.72242760658264,1423,0.0,30.0,4.0
16.736888885498047,892,0.0,30.0,4.0
16.74675416946411,1362,0.0,30.0,4.0
16.753809452056885,1138,0.0,30.0,4.0
16.767077207565308,1776,0.0,30.0,4.0
16.777461528778076,1317,0.0,30.0,4.0
16.786669731140137,863,0.0,30.0,4.0
16.796781063079834,1399,0.0,30.0,4.0
16.807104110717773,870,0.0,30.0,4.0
16.817310094833374,1392,0.0,30.0,4.0
16.826826333999634,864,0.0,30.0,4.0
16.83669090270996,1839,0.0,30.0,4.0
16.84680724143982,4095,0.0,30.0,4.0
16.85751962661743,2167,0.0,30.0,4.0
16.8676974773407,4095,0.0,30.0,4.0
16.8759663105011,3709,0.0,30.0,4.0
16.88688611984253,4095,0.0,30.0,4.0
16.892319917678833,4095,0.0,30.0,4.0
16.907793760299683,357,0.0,30.0,4.0
16.91641616821289,4095,0.0,30.0,4.0
16.92304539680481,384,0.0,30.0,4.0
16.937340259552002,4095,0.0,30.0,4.0
16.94778823852539,511,0.0,30.0,4.0
16.953739404678345,4095,0.0,30.0,4.0
16.966849327087402,435,0.0,30.0,4.0
16.976754188537598,4095,0.0,30.0,4.0
16.987046480178833,4095,0.0,30.0,4.0
16.994062423706055,4095,0.0,30.0,4.0
17.006593942642212,4095,0.0,30.0,4.0
17.016493558883667,4095,0.0,30.0,4.0
17.027825117111206,4095,0.0,30.0,4.0
17.037347078323364,4095,0.0,30.0,4.0
17.04776406288147,4095,0.0,30.0,4.0
17.057382822036743,4095,0.0,30.0,4.0
17.0668683052063,4095,0.0,30.0,4.0
17.07682967185974,4095,0.0,30.0,4.0
17.083583116531372,4095,0.0,30.0,4.0
17.0976505279541,3314,0.0,30.0,4.0
17.10612940788269,4095,0.0,30.0,4.0
17.117779970169067,2800,0.0,30.0,4.0
17.12779140472412,4095,0.0,30.0,4.0
17.13592267036438,2587,0.0,30.0,4.0
17.147752046585083,4095,0.0,30.0,4.0
17.15680766105652,2818,0.0,30.0,4.0
17.167720079421997,4095,0.0,30.0,4.0
17.17783522605896,2761,0.0,30.0,4.0
17.187873125076294,4095,0.0,30.0,4.0
17.196861267089844,2809,0.0,30.0,4.0
17.20688486099243,4095,0.0,30.0,4.0
17.216889142990112,2799,0.0,30.0,4.0
17.222349643707275,4095,0.0,30.0,4.0
17.236671447753906,2865,0.0,30.0,4.0
17.24783205986023,4095,0.0,30.0,4.0
17.25658631324768,2927,0.0,30.0,4.0
17.26752996444702,4095,0.0,30.0,4.0
17.276676654815674,3174,0.0,30.0,4.0
17.28780770301819,4095,0.0,30.0,4.0
17.296956062316895,3216,0.0,30.0,4.0
17.306768894195557,4095,0.0,30.0,4.0
17.316774606704712,3266,0.0,30.0,4.0
17.327695846557617,4095,0.0,30.0,4.0
17.33644938468933,3604,0.0,30.0,4.0
17.34670639038086,4095,0.0,30.0,4.0
17.356832265853882,3589,0.0,30.0,4.0
17.367219924926758,4095,0.0,30.0,4.0
17.37677836418152,3622,0.0,30.0,4.0
17.383553504943848,4095,0.0,30.0,4.0
17.396938800811768,3730,0.0,30.0,4.0
17.40656805038452,4095,0.0,30.0,4.0
17.41710591316223,3977,0.0,30.0,4.0
17.42670249938965,4095,0.0,30.0,4.0
17.436713457107544,4095,0.0,30.0,4.0
17.447678565979004,4095,0.0,30.0,4.0
17.457660675048828,2409,0.0,30.0,4.0
17.46747350692749,4095,0.0,30.0,4.0
17.4767005443573,1845,0.0,30.0,4.0
17.486719608306885,4095,0.0,30.0,4.0
17.496788263320923,1922,0.0,30.0,4.0
17.5076847076416,4095,0.0,30.0,4.0
17.5167179107666,2013,0.0,30.0,4.0
17.52677035331726,4095,0.0,30.0,4.0
17.536715745925903,1584,0.0,30.0,4.0
17.547693490982056,4095,0.0,30.0,4.0
17.556734800338745,1446,0.0,30.0,4.0
17.56671905517578,4095,0.0,30.0,4.0
17.576687574386597,2137,0.0,30.0,4.0
17.58767318725586,4095,0.0,30.0,4.0
17.596713304519653,3525,0.0,30.0,4.0
17.59926962852478,4095,0.0,30.0,4.0
17.6167414188385,3630,0.0,30.0,4.0
17.627674102783203,4095,0.0,30.0,4.0
17.637693405151367,2976,0.0,30.0,4.0
17.646713256835938,4095,0.0,30.0,4.0
17.656726360321045,4053,0.0,30.0,4.0
17.66580843925476,4095,0.0,30.0,4.0
17.676733016967773,4095,0.0,30.0,4.0
17.68735933303833,4095,0.0,30.0,4.0
17.697295665740967,4095,0.0,30.0,4.0
17.698287963867188,4095,0.0,30.0,4.0
17.716702461242676,4095,0.0,30.0,4.0
17.726691722869873,4095,0.0,30.0,4.0
17.736747980117798,4095,0.0,30.0,4.0
17.74347233772278,4095,0.0,30.0,4.0
17.757843017578125,4095,0.0,30.0,4.0
17.766469478607178,4095,0.0,30.0,4.0
17.776870012283325,4095,0.0,30.0,4.0
17.786864519119263,4095,0.0,30.0,4.0
17.79730772972107,4095,0.0,30.0,4.0
17.806823253631592,4095,0.0,30.0,4.0
17.8168888092041,4095,0.0,30.0,4.0
17.827177047729492,4095,0.0,30.0,4.0
17.836877822875977,4095,0.0,30.0,4.0
17.847822189331055,4095,0.0,30.0,4.0
17.85688805580139,4095,0.0,30.0,4.0
17.8672091960907,4095,0.0,30.0,4.0
17.873929738998413,4095,0.0,30.0,4.0
17.88325595855713,4095,0.0,30.0,4.0
17.896950483322144,4095,0.0,30.0,4.0
17.90660786628723,4095,0.0,30.0,4.0
17.91704487800598,4095,0.0,30.0,4.0
17.92674708366394,4095,0.0,30.0,4.0
17.936840295791626,4095,0.0,30.0,4.0
17.944124460220337,4095,0.0,30.0,4.0
17.957581043243408,4095,0.0,30.0,4.0
17.966554164886475,2658,0.0,30.0,4.0
17.97787642478943,3302,0.0,30.0,4.0
17.987844944000244,897,0.0,30.0,4.0
17.997812747955322,1442,0.0,30.0,4.0
18.007071495056152,1062,0.0,30.0,4.0
18.01752519607544,1616,0.0,30.0,4.0
18.026621103286743,1165,0.0,30.0,4.0
18.03791069984436,1531,0.0,30.0,4.0
18.043859481811523,1169,0.0,30.0,4.0
18.05750346183777,1488,0.0,30.0,4.0
18.067852020263672,1335,0.0,30.0,4.0
18.076099395751953,1728,0.0,30.0,4.0
18.086894989013672,1193,0.0,30.0,4.0
18.09682846069336,1247,0.0,30.0,4.0
18.104292631149292,1149,0.0,30.0,4.0
18.117953777313232,1213,0.0,30.0,4.0
18.12753438949585,1046,0.0,30.0,4.0
18.136742115020752,1001,0.0,30.0,4.0
18.146745681762695,1014,0.0,30.0,4.0
18.150259256362915,881,0.0,30.0,4.0
18.16682243347168,1095,0.0,30.0,4.0
18.176851987838745,1062,0.0,30.0,4.0
18.186879873275757,1045,0.0,30.0,4.0
18.19690251350403,789,0.0,30.0,4.0
18.20680832862854,1136,0.0,30.0,4.0
18.216694355010986,924,0.0,30.0,4.0
18.227092027664185,1104,0.0,30.0,4.0
18.23673939704895,1040,0.0,30.0,4.0
18.246739625930786,1383,0.0,30.0,4.0
18.25669503211975,1216,0.0,30.0,4.0
18.266651153564453,1420,0.0,30.0,4.0
18.276721239089966,1469,0.0,30.0,4.0
18.286733627319336,1495,0.0,30.0,4.0
18.296793222427368,1281,0.0,30.0,4.0
18.30769991874695,1653,0.0,30.0,4.0
18.311521530151367,1508,0.0,30.0,4.0
18.326895713806152,1898,0.0,30.0,4.0
18.336736917495728,1665,0.0,30.0,4.0
18.346738576889038,1760,0.0,30.0,4.0
18.356688261032104,1469,0.0,30.0,4.0
18.36711812019348,1744,0.0,30.0,4.0
18.37301754951477,1711,0.0,30.0,4.0
18.38667941093445,1829,0.0,30.0,4.0
18.39592432975769,1472,0.0,30.0,4.0
18.403684854507446,1904,0.0,30.0,4.0
18.416709899902344,1590,0.0,30.0,4.0
18.427173852920532,2064,0.0,30.0,4.0
18.436856269836426,1686,0.0,30.0,4.0
18.446717500686646,1867,0.0,30.0,4.0
18.460200786590576,1431,0.0,30.0,4.0
18.468533039093018,1834,0.0,30.0,4.0
18.476726055145264,1680,0.0,30.0,4.0
18.486990213394165,1879,0.0,30.0,4.0
18.496667623519897,1618,0.0,30.0,4.0
18.49949836730957,1899,0.0,30.0,4.0
18.518306970596313,1683,0.0,30.0,4.0
18.527381420135498,2101,0.0,30.0,4.0
18.536895275115967,1882,0.0,30.0,4.0
18.54658818244934,2158,0.0,30.0,4.0
18.557067394256592,1738,0.0,30.0,4.0
18.566680669784546,2322,0.0,30.0,4.0
18.57371187210083,1804,0.0,30.0,4.0
18.58405375480652,261,0.0,30.0,4.0
18.59642481803894,635,0.0,30.0,4.0
18.604265213012695,42,0.0,30.0,4.0
18.61659598350525,51,0.0,30.0,4.0
18.620965242385864,94,0.0,30.0,4.0
18.63594102859497,0,0.0,30.0,4.0
18.641613960266113,126,0.0,30.0,4.0
18.652849197387695,0,0.0,30.0,4.0
18.666418313980103,0,0.0,30.0,4.0
18.671191692352295,0,0.0,30.0,4.0
18.68223810195923,0,0.0,30.0,4.0
18.69632053375244,669,0.0,30.0,4.0
18.704972505569458,228,0.0,30.0,4.0
18.716474533081055,461,0.0,30.0,4.0
18.726043939590454,160,0.0,30.0,4.0
18.73405957221985,256,0.0,30.0,4.0
18.741331338882446,225,0.0,30.0,4.0
18.755693435668945,330,0.0,30.0,4.0
18.766387224197388,0,0.0,30.0,4.0
18.7720468044281,430,0.0,30.0,4.0
18.786476612091064,291,0.0,30.0,4.0
18.796090841293335,624,0.0,30.0,4.0
18.802738189697266,384,0.0,30.0,4.0
18.816572904586792,965,0.0,30.0,4.0
18.8257474899292,349,0.0,30.0,4.0
18.833831071853638,752,0.0,30.0,4.0
18.840182304382324,521,0.0,30.0,4.0
18.856682300567627,897,0.0,30.0,4.0
18.866178512573242,81,0.0,30.0,4.0
18.871960401535034,777,0.0,30.0,4.0
18.88619637489319,386,0.0,30.0,4.0
18.895906448364258,649,0.0,30.0,4.0
18.90484309196472,622,0.0,30.0,4.0
18.915852069854736,609,0.0,30.0,4.0
18.926589965820312,276,0.0,30.0,4.0
18.935207843780518,442,0.0,30.0,4.0
18.941943168640137,469,0.0,30.0,4.0
18.95628309249878,379,0.0,30.0,4.0
18.966174125671387,324,0.0,30.0,4.0
18.972645044326782,234,0.0,30.0,4.0
18.986042737960815,327,0.0,30.0,4.0
18.995656490325928,261,0.0,30.0,4.0
19.00653338432312,493,0.0,30.0,4.0
19.016432285308838,23,0.0,30.0,4.0
19.026423454284668,95,0.0,30.0,4.0
19.034582138061523,0,0.0,30.0,4.0
19.042770385742188,280,0.0,30.0,4.0
19.05618119239807,0,0.0,30.0,4.0
19.065779447555542,415,0.0,30.0,4.0
19.072499990463257,0,0.0,30.0,4.0
19.085888385772705,246,0.0,30.0,4.0
19.09447693824768,0,0.0,30.0,4.0
19.10320258140564,256,0.0,30.0,4.0
19.116020441055298,0,0.0,30.0,4.0
19.12615132331848,0,0.0,30.0,4.0
19.13553500175476,0,0.0,30.0,4.0
19.14150071144104,143,0.0,30.0,4.0
19.155858278274536,0,0.0,30.0,4.0
19.166388750076294,459,0.0,30.0,4.0
19.1722412109375,0,0.0,30.0,4.0
19.18567419052124,115,0.0,30.0,4.0
19.194229125976562,0,0.0,30.0,4.0
19.201945066452026,226,0.0,30.0,4.0
19.21632432937622,0,0.0,30.0,4.0
19.225952863693237,386,0.0,30.0,4.0
19.233767986297607,0,0.0,30.0,4.0
19.240311861038208,482,0.0,30.0,4.0
19.256734609603882,299,0.0,30.0,4.0
19.265764236450195,752,0.0,30.0,4.0
19.27103066444397,411,0.0,30.0,4.0
19.28643560409546,560,0.0,30.0,4.0
19.296640157699585,435,0.0,30.0,4.0
19.30264925956726,801,0.0,30.0,4.0
19.316042184829712,709,0.0,30.0,4.0
19.324700593948364,677,0.0,30.0,4.0
19.336586236953735,682,0.0,30.0,4.0
19.340132236480713,759,0.0,30.0,4.0
19.355488300323486,688,0.0,30.0,4.0
19.366317987442017,955,0.0,30.0,4.0
19.371827125549316,564,0.0,30.0,4.0
19.38617992401123,480,0.0,30.0,4.0
19.39391040802002,368,0.0,30.0,4.0
19.401917695999146,832,0.0,30.0,4.0
19.416271448135376,371,0.0,30.0,4.0
19.42655110359192,773,0.0,30.0,4.0
19.434463500976562,569,0.0,30.0,4.0
19.43993377685547,744,0.0,30.0,4.0
19.45528221130371,771,0.0,30.0,4.0
19.466273546218872,976,0.0,30.0,4.0
19.472713947296143,799,0.0,30.0,4.0
19.486624479293823,404,0.0,30.0,4.0
19.493643283843994,748,0.0,30.0,4.0
19.501303911209106,976,0.0,30.0,4.0
19.516669750213623,873,0.0,30.0,4.0
19.527819395065308,1109,0.0,30.0,4.0
19.532031774520874,1170,0.0,30.0,4.0
19.546557903289795,944,0.0,30.0,4.0
19.550074338912964,1207,0.0,30.0,4.0
19.567641496658325,1180,0.0,30.0,4.0
19.577924966812134,1210,0.0,30.0,4.0
19.58656406402588,493,0.0,30.0,4.0
19.593485832214355,1148,0.0,30.0,4.0
19.606858015060425,1092,0.0,30.0,4.0
19.6162109375,1072,0.0,30.0,4.0
19.627906560897827,1236,0.0,30.0,4.0
19.63693642616272,1097,0.0,30.0,4.0
19.646673679351807,886,0.0,30.0,4.0
19.654906272888184,1023,0.0,30.0,4.0
19.666717290878296,1357,0.0,30.0,4.0
19.676855087280273,1094,0.0,30.0,4.0
19.68593192100525,471,0.0,30.0,4.0
19.69323182106018,2083,0.0,30.0,4.0
19.699919939041138,241,0.0,30.0,4.0
19.715994358062744,377,0.0,30.0,4.0
19.72385549545288,2673,0.0,30.0,4.0
19.735413551330566,2443,0.0,30.0,4.0
19.74708867073059,4095,0.0,30.0,4.0
19.756749629974365,4095,0.0,30.0,4.0
19.767216682434082,4095,0.0,30.0,4.0
19.77681589126587,4095,0.0,30.0,4.0
19.7868492603302,4095,0.0,30.0,4.0
19.79689383506775,4095,0.0,30.0,4.0
19.80692172050476,4095,0.0,30.0,4.0
19.8169903755188,4095,0.0,30.0,4.0
19.827900171279907,4095,0.0,30.0,4.0
19.833400011062622,4095,0.0,30.0,4.0
19.846792221069336,4095,0.0,30.0,4.0
19.85680913925171,1943,0.0,30.0,4.0
19.86722683906555,4095,0.0,30.0,4.0
19.876747846603394,4095,0.0,30.0,4.0
19.886793613433838,4095,0.0,30.0,4.0
19.89687156677246,4095,0.0,30.0,4.0
19.900516748428345,4095,0.0,30.0,4.0
19.91731905937195,4095,0.0,30.0,4.0
19.926913738250732,4095,0.0,30.0,4.0
19.93327522277832,4095,0.0,30.0,4.0
19.947868824005127,4095,0.0,30.0,4.0
19.954169988632202,4095,0.0,30.0,4.0
19.96777868270874,4095,0.0,30.0,4.0
19.977543830871582,4095,0.0,30.0,4.0
19.985018968582153,4095,0.0,30.0,4.0
19.997833013534546,4095,0.0,30.0,4.0
20.007251977920532,4095,0.0,30.0,4.0
20.016569137573242,4095,0.0,30.0,4.0
20.02681803703308,4095,0.0,30.0,4.0
20.037846088409424,4095,0.0,30.0,4.0
20.046319484710693,4095,0.0,30.0,4.0
20.053993463516235,1890,0.0,30.0,4.0
20.06172513961792,2299,0.0,30.0,4.0
20.07671856880188,1664,0.0,30.0,4.0
20.086097717285156,2222,0.0,30.0,4.0
20.096856594085693,4095,0.0,30.0,4.0
20.106853008270264,2618,0.0,30.0,4.0
20.117053031921387,3372,0.0,30.0,4.0
20.12303900718689,2384,0.0,30.0,4.0
20.136963367462158,3046,0.0,30.0,4.0
20.146159410476685,2027,0.0,30.0,4.0
20.15380072593689,1301,0.0,30.0,4.0
20.16654324531555,2161,0.0,30.0,4.0
20.176836013793945,1482,0.0,30.0,4.0
20.186508655548096,1768,0.0,30.0,4.0
20.193219423294067,886,0.0,30.0,4.0
20.20665216445923,1568,0.0,30.0,4.0
20.21656084060669,1933,0.0,30.0,4.0
20.22393226623535,1712,0.0,30.0,4.0
20.232614755630493,765,0.0,30.0,4.0
20.245877981185913,1668,0.0,30.0,4.0
20.254587411880493,1535,0.0,30.0,4.0
20.266146659851074,1655,0.0,30.0,4.0
20.27657198905945,3002,0.0,30.0,4.0
20.28433847427368,1385,0.0,30.0,4.0
20.29296088218689,1903,0.0,30.0,4.0
20.30630898475647,1391,0.0,30.0,4.0
20.316097021102905,1681,0.0,30.0,4.0
20.323737144470215,1451,0.0,30.0,4.0
20.333296537399292,0,0.0,30.0,4.0
20.34671187400818,1351,0.0,30.0,4.0
20.355384588241577,0,0.0,30.0,4.0
20.366087913513184,1560,0.0,30.0,4.0
20.37641143798828,1971,0.0,30.0,4.0
20.386457920074463,848,0.0,30.0,4.0
20.392772674560547,0,0.0,30.0,4.0
20.406227827072144,1490,0.0,30.0,4.0
20.41612935066223,0,0.0,30.0,4.0
20.422387838363647,1535,0.0,30.0,4.0
20.432934999465942,0,0.0,30.0,4.0
20.446425676345825,1133,0.0,30.0,4.0
20.453153133392334,0,0.0,30.0,4.0
20.465524911880493,1411,0.0,30.0,4.0
20.476223468780518,0,0.0,30.0,4.0
20.484017372131348,1328,0.0,30.0,4.0
20.492555618286133,6,0.0,30.0,4.0
20.505824089050293,1074,0.0,30.0,4.0
20.51559543609619,0,0.0,30.0,4.0
20.52224612236023,1472,0.0,30.0,4.0
20.53280210494995,0,0.0,30.0,4.0
20.545289516448975,1316,0.0,30.0,4.0
20.549444675445557,0,0.0,30.0,4.0
20.563295602798462,1215,0.0,30.0,4.0
20.5765061378479,0,0.0,30.0,4.0
20.583537578582764,1169,0.0,30.0,4.0
20.595827102661133,116,0.0,30.0,4.0
20.60672426223755,1326,0.0,30.0,4.0
20.616193771362305,0,0.0,30.0,4.0
20.61980390548706,1321,0.0,30.0,4.0
20.635839462280273,0,0.0,30.0,4.0
20.64695692062378,1265,0.0,30.0,4.0
20.656668424606323,0,0.0,30.0,4.0
20.669525623321533,1296,0.0,30.0,4.0
20.676461219787598,0,0.0,30.0,4.0
20.70236897468567,1326,0.0,30.0,4.0
20.703097820281982,28,0.0,30.0,4.0
20.70637273788452,1811,0.0,30.0,4.0
20.7107937335968,4095,0.0,30.0,4.0
20.726345777511597,2287,0.0,30.0,4.0
20.73685121536255,4095,0.0,30.0,4.0
20.74484944343567,2558,0.0,30.0,4.0
20.752867698669434,4095,0.0,30.0,4.0
20.77255082130432,2169,0.0,30.0,4.0
20.775907278060913,4095,0.0,30.0,4.0
20.78596067428589,1747,0.0,30.0,4.0
20.792166471481323,4095,0.0,30.0,4.0
20.806358575820923,2311,0.0,30.0,4.0
20.816444635391235,4095,0.0,30.0,4.0
20.821860551834106,2130,0.0,30.0,4.0
20.836021661758423,4095,0.0,30.0,4.0
20.84461236000061,2176,0.0,30.0,4.0
20.852649688720703,4095,0.0,30.0,4.0
20.86668109893799,2927,0.0,30.0,4.0
20.876373767852783,4095,0.0,30.0,4.0
20.886297941207886,2934,0.0,30.0,4.0
20.89175844192505,4095,0.0,30.0,4.0
20.90522265434265,4095,0.0,30.0,4.0
20.916156768798828,4095,0.0,30.0,4.0
20.921488046646118,4095,0.0,30.0,4.0
20.936772108078003,4095,0.0,30.0,4.0
20.945436239242554,4095,0.0,30.0,4.0
20.955138444900513,4095,0.0,30.0,4.0
20.966643571853638,4095,0.0,30.0,4.0
20.97653841972351,4095,0.0,30.0,4.0
20.98311138153076,4095,0.0,30.0,4.0
20.99186062812805,4095,0.0,30.0,4.0
21.006856441497803,4095,0.0,30.0,4.0
21.016794204711914,4095,0.0,30.0,4.0
21.021172761917114,1930,0.0,30.0,4.0
21.036746740341187,4095,0.0,30.0,4.0
21.04525852203369,1117,0.0,30.0,4.0
21.05300521850586,4095,0.0,30.0,4.0
21.066699504852295,831,0.0,30.0,4.0
21.075918912887573,4095,0.0,30.0,4.0
21.08472728729248,306,0.0,30.0,4.0
21.097095251083374,2576,0.0,30.0,4.0
21.106515407562256,31,0.0,30.0,4.0
21.116939306259155,3036,0.0,30.0,4.0
21.121933937072754,722,0.0,30.0,4.0
21.1321918964386,1500,0.0,30.0,4.0
21.145087718963623,1003,0.0,30.0,4.0
21.15268349647522,1642,0.0,30.0,4.0
21.166013717651367,1179,0.0,30.0,4.0
21.174872636795044,1264,0.0,30.0,4.0
21.18455481529236,1039,0.0,30.0,4.0
21.191112518310547,915,0.0,30.0,4.0
21.206631183624268,1388,0.0,30.0,4.0
21.214820861816406,1412,0.0,30.0,4.0
21.22184181213379,1785,0.0,30.0,4.0
21.236467838287354,1915,0.0,30.0,4.0
21.245905876159668,1808,0.0,30.0,4.0
21.25260353088379,0,0.0,30.0,4.0
21.266383409500122,2140,0.0,30.0,4.0
21.274718523025513,0,0.0,30.0,4.0
21.286865711212158,1931,0.0,30.0,4.0
21.296685457229614,2384,0.0,30.0,4.0
21.306244134902954,1935,0.0,30.0,4.0
21.31632661819458,2441,0.0,30.0,4.0
21.327067852020264,1554,0.0,30.0,4.0
21.33531951904297,1339,0.0,30.0,4.0
21.344396591186523,955,0.0,30.0,4.0
21.350754976272583,1258,0.0,30.0,4.0
21.366581201553345,463,0.0,30.0,4.0
21.3766131401062,4095,0.0,30.0,4.0
21.38661217689514,343,0.0,30.0,4.0
21.396653175354004,4095,0.0,30.0,4.0
21.398645401000977,358,0.0,30.0,4.0
21.408711671829224,4095,0.0,30.0,4.0
21.419918060302734,358,0.0,30.0,4.0
21.429953575134277,4095,0.0,30.0,4.0
21.442771196365356,382,0.0,30.0,4.0
21.452019929885864,4095,0.0,30.0,4.0
21.466017961502075,350,0.0,30.0,4.0
21.47402262687683,4095,0.0,30.0,4.0
21.482325077056885,222,0.0,30.0,4.0
21.49686098098755,4095,0.0,30.0,4.0
21.505045890808105,176,0.0,30.0,4.0
21.516197681427002,4095,0.0,30.0,4.0
21.51720428466797,246,0.0,30.0,4.0
21.527215242385864,4095,0.0,30.0,4.0
21.53855562210083,208,0.0,30.0,4.0
21.54856562614441,4095,0.0,30.0,4.0
21.559855461120605,240,0.0,30.0,4.0
21.569865465164185,4095,0.0,30.0,4.0
21.58117151260376,198,0.0,30.0,4.0
21.59242010116577,4095,0.0,30.0,4.0
21.604594707489014,861,0.0,30.0,4.0
21.616278648376465,4095,0.0,30.0,4.0
21.621042728424072,627,0.0,30.0,4.0
21.63584017753601,4095,0.0,30.0,4.0
21.643545627593994,577,0.0,30.0,4.0
21.651216745376587,4095,0.0,30.0,4.0
21.666362524032593,737,0.0,30.0,4.0
21.675002574920654,2869,0.0,30.0,4.0
21.685832738876343,740,0.0,30.0,4.0
21.696317672729492,4095,0.0,30.0,4.0
21.70504641532898,861,0.0,30.0,4.0
21.716623783111572,4095,0.0,30.0,4.0
21.721009731292725,747,0.0,30.0,4.0
21.73604154586792,4095,0.0,30.0,4.0
21.742752075195312,523,0.0,30.0,4.0
21.756628274917603,4095,0.0,30.0,4.0
21.765923738479614,487,0.0,30.0,4.0
21.773172616958618,4095,0.0,30.0,4.0
21.78662896156311,528,0.0,30.0,4.0
21.788623332977295,4095,0.0,30.0,4.0
21.804333209991455,569,0.0,30.0,4.0
21.81683087348938,4095,0.0,30.0,4.0
21.825450897216797,587,0.0,30.0,4.0
21.836477041244507,4095,0.0,30.0,4.0
21.84194588661194,666,0.0,30.0,4.0
21.85520362854004,4095,0.0,30.0,4.0
21.866875171661377,683,0.0,30.0,4.0
21.87290072441101,4095,0.0,30.0,4.0
21.88661789894104,647,0.0,30.0,4.0
21.89599108695984,4095,0.0,30.0,4.0
21.905811071395874,597,0.0,30.0,4.0
21.916866540908813,4095,0.0,30.0,4.0
21.92111849784851,681,0.0,30.0,4.0
21.936004638671875,4095,0.0,30.0,4.0
21.93701171875,550,0.0,30.0,4.0
21.954729080200195,4095,0.0,30.0,4.0
21.96589469909668,4095,0.0,30.0,4.0
21.975119590759277,4095,0.0,30.0,4.0
21.986146688461304,500,0.0,30.0,4.0
21.996150016784668,4095,0.0,30.0,4.0
22.004523515701294,390,0.0,30.0,4.0
22.016382455825806,4095,0.0,30.0,4.0
22.02588200569153,678,0.0,30.0,4.0
22.03523588180542,4095,0.0,30.0,4.0
22.04321002960205,619,0.0,30.0,4.0
22.056653261184692,4095,0.0,30.0,4.0
22.065971851348877,987,0.0,30.0,4.0
22.07583713531494,4095,0.0,30.0,4.0
22.0827956199646,777,0.0,30.0,4.0
22.096912622451782,4095,0.0,30.0,4.0
22.1065993309021,837,0.0,30.0,4.0
22.116435050964355,3557,0.0,30.0,4.0
22.126551151275635,1745,0.0,30.0,4.0
22.136584043502808,0,0.0,30.0,4.0
22.14395260810852,1353,0.0,30.0,4.0
22.156490564346313,2791,0.0,30.0,4.0
22.166138887405396,1456,0.0,30.0,4.0
22.17467451095581,2080,0.0,30.0,4.0
22.18270182609558,1056,0.0,30.0,4.0
22.196799278259277,1049,0.0,30.0,4.0
22.204359769821167,875,0.0,30.0,4.0
22.21623134613037,1936,0.0,30.0,4.0
22.226653814315796,1937,0.0,30.0,4.0
22.236843585968018,2168,0.0,30.0,4.0
22.24275851249695,1435,0.0,30.0,4.0
22.256164073944092,1907,0.0,30.0,4.0
22.266570806503296,1339,0.0,30.0,4.0
22.2725191116333,2262,0.0,30.0,4.0
22.287031888961792,1341,0.0,30.0,4.0
22.296560049057007,2320,0.0,30.0,4.0
22.29944896697998,1199,0.0,30.0,4.0
22.314228296279907,2349,0.0,30.0,4.0
22.326348781585693,2172,0.0,30.0,4.0
22.33491802215576,1217,0.0,30.0,4.0
22.34290337562561,1417,0.0,30.0,4.0
22.355876445770264,2209,0.0,30.0,4.0
22.366527318954468,1454,0.0,30.0,4.0
22.374332189559937,2507,0.0,30.0,4.0
22.382997512817383,1043,0.0,30.0,4.0
22.39657688140869,2516,0.0,30.0,4.0
22.403966665267944,1499,0.0,30.0,4.0
22.415275812149048,2578,0.0,30.0,4.0
22.426002740859985,2483,0.0,30.0,4.0
22.433637857437134,375,0.0,30.0,4.0
22.441901922225952,1274,0.0,30.0,4.0
22.45667600631714,2469,0.0,30.0,4.0
22.46596384048462,1244,0.0,30.0,4.0
22.47417664527893,477,0.0,30.0,4.0
22.486557483673096,615,0.0,30.0,4.0
22.49638295173645,2718,0.0,30.0,4.0
22.50311040878296,1083,0.0,30.0,4.0
22.516066551208496,368,0.0,30.0,4.0
22.52600336074829,1010,0.0,30.0,4.0
22.533429861068726,277,0.0,30.0,4.0
22.54423427581787,2556,0.0,30.0,4.0
22.556477546691895,2355,0.0,30.0,4.0
22.56589102745056,2339,0.0,30.0,4.0
22.57278871536255,592,0.0,30.0,4.0
22.586140394210815,443,0.0,30.0,4.0
22.59586453437805,151,0.0,30.0,4.0
22.602572202682495,1042,0.0,30.0,4.0
22.617008209228516,177,0.0,30.0,4.0
22.624621152877808,1680,0.0,30.0,4.0
22.632907390594482,197,0.0,30.0,4.0
22.64661145210266,1456,0.0,30.0,4.0
22.656553745269775,826,0.0,30.0,4.0
22.664016008377075,613,0.0,30.0,4.0
22.6762478351593,192,0.0,30.0,4.0
22.686441898345947,0,0.0,30.0,4.0
22.69473385810852,182,0.0,30.0,4.0
22.703543186187744,0,0.0,30.0,4.0
22.71007776260376,215,0.0,30.0,4.0
22.72659969329834,0,0.0,30.0,4.0
22.733082056045532,225,0.0,30.0,4.0
22.741880416870117,36,0.0,30.0,4.0
22.756253719329834,233,0.0,30.0,4.0
22.76646113395691,0,0.0,30.0,4.0
22.772392988204956,351,0.0,30.0,4.0
22.785730123519897,115,0.0,30.0,4.0
22.79543113708496,861,0.0,30.0,4.0
22.806812286376953,901,0.0,30.0,4.0
22.816853761672974,989,0.0,30.0,4.0
22.826114654541016,639,0.0,30.0,4.0
22.833812952041626,1552,0.0,30.0,4.0
22.84049677848816,2441,0.0,30.0,4.0
22.8568012714386,1778,0.0,30.0,4.0
22.864811182022095,192,0.0,30.0,4.0
22.87221884727478,2735,0.0,30.0,4.0
22.886555194854736,4095,0.0,30.0,4.0
22.894227266311646,2241,0.0,30.0,4.0
22.903873205184937,4095,0.0,30.0,4.0
22.91628932952881,2406,0.0,30.0,4.0
22.925923109054565,4095,0.0,30.0,4.0
22.934645891189575,2197,0.0,30.0,4.0
22.94665551185608,4095,0.0,30.0,4.0
22.956094980239868,2065,0.0,30.0,4.0
22.9658260345459,4095,0.0,30.0,4.0
22.975954294204712,2038,0.0,30.0,4.0
22.981899738311768,4095,0.0,30.0,4.0
22.994035482406616,2445,0.0,30.0,4.0
23.001694202423096,4095,0.0,30.0,4.0
23.016003131866455,2713,0.0,30.0,4.0
23.02462673187256,2214,0.0,30.0,4.0
23.0327250957489,2832,0.0,30.0,4.0
23.04646897315979,1010,0.0,30.0,4.0
23.055468797683716,1727,0.0,30.0,4.0
23.0653293132782,2602,0.0,30.0,4.0
23.07082962989807,1833,0.0,30.0,4.0
23.086101293563843,1857,0.0,30.0,4.0
23.093841552734375,1941,0.0,30.0,4.0
23.10213303565979,1669,0.0,30.0,4.0
23.116918087005615,2433,0.0,30.0,4.0
23.124545097351074,2485,0.0,30.0,4.0
23.13325047492981,2144,0.0,30.0,4.0
23.146731853485107,2378,0.0,30.0,4.0
23.154937744140625,1937,0.0,30.0,4.0
23.166008710861206,2147,0.0,30.0,4.0
23.169586420059204,1895,0.0,30.0,4.0
23.18600606918335,1680,0.0,30.0,4.0
23.19352912902832,2194,0.0,30.0,4.0
23.20568609237671,1147,0.0,30.0,4.0
23.21658754348755,0,0.0,30.0,4.0
23.225308179855347,1065,0.0,30.0,4.0
23.23620104789734,0,0.0,30.0,4.0
23.246586084365845,1523,0.0,30.0,4.0
23.255526542663574,0,0.0,30.0,4.0
23.26542377471924,2215,0.0,30.0,4.0
23.276500463485718,0,0.0,30.0,4.0
23.28603720664978,4095,0.0,30.0,4.0
23.29434084892273,0,0.0,30.0,4.0
23.305351734161377,4095,0.0,30.0,4.0
23.31613826751709,0,0.0,30.0,4.0
23.32421898841858,4095,0.0,30.0,4.0
23.3361337184906,0,0.0,30.0,4.0
23.346179962158203,893,0.0,30.0,4.0
23.355848789215088,0,0.0,30.0,4.0
23.36564540863037,0,0.0,30.0,4.0
23.371344804763794,0,0.0,30.0,4.0
23.38637065887451,0,0.0,30.0,4.0
23.394904375076294,0,0.0,30.0,4.0
23.406631231307983,0,0.0,30.0,4.0
23.41577959060669,0,0.0,30.0,4.0
23.425830602645874,4095,0.0,30.0,4.0
23.43593430519104,0,0.0,30.0,4.0
23.445861339569092,2953,0.0,30.0,4.0
23.456652641296387,2553,0.0,30.0,4.0
23.466593503952026,0,0.0,30.0,4.0
23.476783752441406,2087,0.0,30.0,4.0
23.48634648323059,1679,0.0,30.0,4.0
23.493898630142212,1861,0.0,30.0,4.0
23.50382924079895,1808,0.0,30.0,4.0
23.516773462295532,1856,0.0,30.0,4.0
23.526899099349976,1992,0.0,30.0,4.0
23.532411098480225,2042,0.0,30.0,4.0
23.546910047531128,1845,0.0,30.0,4.0
23.55585741996765,1965,0.0,30.0,4.0
23.566715002059937,2004,0.0,30.0,4.0
23.57754158973694,2070,0.0,30.0,4.0
23.586695671081543,1965,0.0,30.0,4.0
23.597498893737793,2087,0.0,30.0,4.0
23.604170322418213,1971,0.0,30.0,4.0
23.616523265838623,2149,0.0,30.0,4.0
23.623921155929565,2102,0.0,30.0,4.0
23.6344952583313,2304,0.0,30.0,4.0
23.64654850959778,2243,0.0,30.0,4.0
23.655043840408325,2418,0.0,30.0,4.0
23.66633415222168,1646,0.0,30.0,4.0
23.67617678642273,2509,0.0,30.0,4.0
23.687028646469116,1676,0.0,30.0,4.0
23.69523024559021,2566,0.0,30.0,4.0
23.706061124801636,1533,0.0,30.0,4.0
23.716109037399292,2610,0.0,30.0,4.0
23.72640824317932,99,0.0,30.0,4.0
23.736457586288452,0,0.0,30.0,4.0
23.746256351470947,566,0.0,30.0,4.0
23.75390863418579,0,0.0,30.0,4.0
23.761586904525757,2682,0.0,30.0,4.0
23.77591896057129,0,0.0,30.0,4.0
23.786973476409912,4095,0.0,30.0,4.0
23.79674220085144,0,0.0,30.0,4.0
23.806957960128784,3834,0.0,30.0,4.0
23.814627170562744,343,0.0,30.0,4.0
23.823341608047485,4095,0.0,30.0,4.0
23.831813097000122,494,0.0,30.0,4.0
23.846049308776855,3253,0.0,30.0,4.0
23.85371994972229,547,0.0,30.0,4.0
23.866511821746826,3216,0.0,30.0,4.0
23.876713037490845,339,0.0,30.0,4.0
23.884553909301758,2907,0.0,30.0,4.0
23.896715879440308,258,0.0,30.0,4.0
23.89986491203308,4095,0.0,30.0,4.0
23.915097951889038,198,0.0,30.0,4.0
23.92629861831665,4095,0.0,30.0,4.0
23.930465698242188,173,0.0,30.0,4.0
23.94584560394287,4095,0.0,30.0,4.0
23.95585870742798,130,0.0,30.0,4.0
23.961148023605347,4095,0.0,30.0,4.0
23.976584911346436,158,0.0,30.0,4.0
23.984182357788086,3629,0.0,30.0,4.0
23.991859197616577,233,0.0,30.0,4.0
24.00574040412903,3011,0.0,30.0,4.0
24.01616644859314,335,0.0,30.0,4.0
24.022698879241943,4095,0.0,30.0,4.0
24.032127141952515,443,0.0,30.0,4.0
24.045550107955933,4095,0.0,30.0,4.0
24.053258895874023,320,0.0,30.0,4.0
24.065938711166382,4095,0.0,30.0,4.0
24.068598747253418,239,0.0,30.0,4.0
24.08400869369507,4095,0.0,30.0,4.0
24.09164786338806,189,0.0,30.0,4.0
24.10606598854065,1958,0.0,30.0,4.0
24.11368179321289,283,0.0,30.0,4.0
24.122405529022217,2610,0.0,30.0,4.0
24.129040241241455,331,0.0,30.0,4.0
24.145373821258545,4043,0.0,30.0,4.0
24.15402579307556,302,0.0,30.0,4.0
24.160765171051025,1187,0.0,30.0,4.0
24.175994157791138,0,0.0,30.0,4.0
24.183781623840332,4095,0.0,30.0,4.0
24.19241428375244,0,0.0,30.0,4.0
24.205756902694702,981,0.0,30.0,4.0
24.206757068634033,0,0.0,30.0,4.0
24.22667956352234,277,0.0,30.0,4.0
24.235901355743408,0,0.0,30.0,4.0
24.24584150314331,464,0.0,30.0,4.0
24.256434440612793,0,0.0,30.0,4.0
24.26513671875,465,0.0,30.0,4.0
24.276432514190674,10,0.0,30.0,4.0
24.28590416908264,1381,0.0,30.0,4.0
24.294711589813232,80,0.0,30.0,4.0
24.30656623840332,1693,0.0,30.0,4.0
24.315680742263794,4,0.0,30.0,4.0
24.321840047836304,1487,0.0,30.0,4.0
24.336240768432617,0,0.0,30.0,4.0
24.34494924545288,485,0.0,30.0,4.0
24.35588240623474,2383,0.0,30.0,4.0
24.365827560424805,1555,0.0,30.0,4.0
24.376484394073486,2439,0.0,30.0,4.0
24.384302377700806,1872,0.0,30.0,4.0
24.395496606826782,2373,0.0,30.0,4.0
24.40603733062744,1627,0.0,30.0,4.0
24.414973258972168,0,0.0,30.0,4.0
24.426645517349243,599,0.0,30.0,4.0
24.436203479766846,149,0.0,30.0,4.0
24.44578981399536,453,0.0,30.0,4.0
24.455740690231323,43,0.0,30.0,4.0
24.466315507888794,478,0.0,30.0,4.0
24.475650310516357,113,0.0,30.0,4.0
24.484810829162598,523,0.0,30.0,4.0
24.494784116744995,240,0.0,30.0,4.0
24.506253004074097,578,0.0,30.0,4.0
24.515828609466553,130,0.0,30.0,4.0
24.52252960205078,944,0.0,30.0,4.0
24.535847663879395,337,0.0,30.0,4.0
24.545716285705566,1219,0.0,30.0,4.0
24.553457260131836,407,0.0,30.0,4.0
24.56660771369934,1546,0.0,30.0,4.0
24.576246738433838,2015,0.0,30.0,4.0
24.583032369613647,1457,0.0,30.0,4.0
24.591618061065674,1741,0.0,30.0,4.0
24.60592794418335,456,0.0,30.0,4.0
24.61474585533142,1168,0.0,30.0,4.0
24.622349739074707,256,0.0,30.0,4.0
24.63657855987549,1302,0.0,30.0,4.0
24.645957469940186,153,0.0,30.0,4.0
24.65595531463623,0,0.0,30.0,4.0
24.66616654396057,0,0.0,30.0,4.0
24.676201105117798,0,0.0,30.0,4.0
24.680415153503418,0,0.0,30.0,4.0
24.696444272994995,0,0.0,30.0,4.0
24.698782682418823,0,0.0,30.0,4.0
24.71282935142517,0,0.0,30.0,4.0
24.722957372665405,0,0.0,30.0,4.0
24.732957363128662,0,0.0,30.0,4.0
24.7440664768219,0,0.0,30.0,4.0
24.75408101081848,0,0.0,30.0,4.0
24.76660466194153,0,0.0,30.0,4.0
24.76752257347107,0,0.0,30.0,4.0
24.777528047561646,0,0.0,30.0,4.0
24.790701150894165,0,0.0,30.0,4.0
24.804895401000977,0,0.0,30.0,4.0
24.816474676132202,0,0.0,30.0,4.0
24.82648730278015,0,0.0,30.0,4.0
24.836487293243408,0,0.0,30.0,4.0
24.846487283706665,0,0.0,30.0,4.0
24.856588125228882,0,0.0,30.0,4.0
24.86645245552063,0,0.0,30.0,4.0
24.875574350357056,0,0.0,30.0,4.0
24.884041786193848,0,0.0,30.0,4.0
24.890783071517944,1739,0.0,30.0,4.0
24.906718492507935,1152,0.0,30.0,4.0
24.913625478744507,0,0.0,30.0,4.0
24.92033076286316,0,0.0,30.0,4.0
24.936651468276978,602,0.0,30.0,4.0
24.94442129135132,1117,0.0,30.0,4.0
24.952220916748047,0,0.0,30.0,4.0
24.965934991836548,0,0.0,30.0,4.0
24.97553777694702,0,0.0,30.0,4.0
24.986162185668945,0,0.0,30.0,4.0
24.996379852294922,0,0.0,30.0,4.0
25.005937814712524,0,0.0,30.0,4.0
25.016540050506592,0,0.0,30.0,4.0
25.023155450820923,0,0.0,30.0,4.0
25.035303115844727,0,0.0,30.0,4.0
25.047043323516846,0,0.0,30.0,4.0
25.05588150024414,0,0.0,30.0,4.0
25.06618881225586,0,0.0,30.0,4.0
25.0735604763031,0,0.0,30.0,4.0
25.085707902908325,0,0.0,30.0,4.0
25.09702467918396,0,0.0,30.0,4.0
25.105688095092773,0,0.0,30.0,4.0
25.116591453552246,0,0.0,30.0,4.0
25.11979603767395,0,0.0,30.0,4.0
25.136415004730225,0,0.0,30.0,4.0
25.146618843078613,0,0.0,30.0,4.0
25.153919458389282,1424,0.0,30.0,4.0
25.166213274002075,0,0.0,30.0,4.0
25.173385858535767,1775,0.0,30.0,4.0
25.186768293380737,0,0.0,30.0,4.0
25.197088479995728,0,0.0,30.0,4.0
25.204058170318604,0,0.0,30.0,4.0
25.216286182403564,0,0.0,30.0,4.0
25.226609706878662,0,0.0,30.0,4.0
25.236791372299194,0,0.0,30.0,4.0
25.246821403503418,0,0.0,30.0,4.0
25.25704550743103,0,0.0,30.0,4.0
25.266196966171265,0,0.0,30.0,4.0
25.27684712409973,0,0.0,30.0,4.0
25.28633713722229,0,0.0,30.0,4.0
25.296385049819946,4095,0.0,30.0,4.0
25.30613350868225,1671,0.0,30.0,4.0
25.31669020652771,4095,0.0,30.0,4.0
25.323389768600464,481,0.0,30.0,4.0
25.336109161376953,4095,0.0,30.0,4.0
25.34703826904297,1968,0.0,30.0,4.0
25.35402011871338,4095,0.0,30.0,4.0
25.366975784301758,4095,0.0,30.0,4.0
25.374112844467163,4095,0.0,30.0,4.0
25.3850257396698,3754,0.0,30.0,4.0
25.396974086761475,4095,0.0,30.0,4.0
25.40598487854004,2896,0.0,30.0,4.0
25.416818141937256,4095,0.0,30.0,4.0
25.426700353622437,4095,0.0,30.0,4.0
25.435264348983765,4095,0.0,30.0,4.0
25.44110345840454,4095,0.0,30.0,4.0
25.4553165435791,4095,0.0,30.0,4.0
25.464672803878784,4095,0.0,30.0,4.0
25.47636318206787,4095,0.0,30.0,4.0
25.480128288269043,4095,0.0,30.0,4.0
25.495891332626343,4095,0.0,30.0,4.0
25.50642466545105,4095,0.0,30.0,4.0
25.51612377166748,4095,0.0,30.0,4.0
25.521711587905884,4095,0.0,30.0,4.0
25.53589153289795,4095,0.0,30.0,4.0
25.539081811904907,4095,0.0,30.0,4.0
25.556151866912842,4095,0.0,30.0,4.0
25.56580901145935,4095,0.0,30.0,4.0
25.576043128967285,4095,0.0,30.0,4.0
25.58113384246826,4095,0.0,30.0,4.0
25.596351385116577,4095,0.0,30.0,4.0
25.600367069244385,4095,0.0,30.0,4.0
25.61603546142578,4095,0.0,30.0,4.0
25.625829219818115,4095,0.0,30.0,4.0
25.634987592697144,4095,0.0,30.0,4.0
25.64709210395813,4095,0.0,30.0,4.0
25.656482696533203,4095,0.0,30.0,4.0
25.663708925247192,4095,0.0,30.0,4.0
25.67626166343689,4095,0.0,30.0,4.0
25.686805963516235,4095,0.0,30.0,4.0
25.697043418884277,4095,0.0,30.0,4.0
25.70396113395691,4095,0.0,30.0,4.0
25.7145574092865,4095,0.0,30.0,4.0
25.72623300552368,4095,0.0,30.0,4.0
25.734618186950684,4095,0.0,30.0,4.0
25.746917247772217,4095,0.0,30.0,4.0
25.749389171600342,4095,0.0,30.0,4.0
25.763466358184814,4095,0.0,30.0,4.0
25.773468494415283,4095,0.0,30.0,4.0
25.78346872329712,4095,0.0,30.0,4.0
25.79513907432556,4095,0.0,30.0,4.0
25.806808471679688,4095,0.0,30.0,4.0
25.807767391204834,4095,0.0,30.0,4.0
25.817789793014526,4095,0.0,30.0,4.0
25.82778549194336,4095,0.0,30.0,4.0
25.837785482406616,4095,0.0,30.0,4.0
25.847784996032715,4095,0.0,30.0,4.0
25.857788801193237,4095,0.0,30.0,4.0
25.867786407470703,4095,0.0,30.0,4.0
25.878660917282104,4095,0.0,30.0,4.0
25.889606952667236,4095,0.0,30.0,4.0
25.906535387039185,4095,0.0,30.0,4.0
25.91673493385315,4095,0.0,30.0,4.0
25.92650580406189,4095,0.0,30.0,4.0
25.934059381484985,4095,0.0,30.0,4.0
25.9421648979187,1526,0.0,30.0,4.0
25.956631183624268,4095,0.0,30.0,4.0
25.96513080596924,341,0.0,30.0,4.0
25.973881006240845,4095,0.0,30.0,4.0
25.980571746826172,4095,0.0,30.0,4.0
25.99591326713562,4095,0.0,30.0,4.0
26.003597021102905,3926,0.0,30.0,4.0
26.011321306228638,4095,0.0,30.0,4.0
26.026572942733765,511,0.0,30.0,4.0
26.036609172821045,4095,0.0,30.0,4.0
26.037991285324097,4095,0.0,30.0,4.0
26.056927919387817,4095,0.0,30.0,4.0
26.06548309326172,4095,0.0,30.0,4.0
26.072686433792114,4095,0.0,30.0,4.0
26.086867332458496,4095,0.0,30.0,4.0
26.096856117248535,4095,0.0,30.0,4.0
26.106252670288086,4095,0.0,30.0,4.0
26.116103172302246,4095,0.0,30.0,4.0
26.1252920627594,4095,0.0,30.0,4.0
26.1360023021698,4095,0.0,30.0,4.0
26.146803617477417,4095,0.0,30.0,4.0
26.151666164398193,4095,0.0,30.0,4.0
26.165043115615845,4095,0.0,30.0,4.0
26.176294088363647,4095,0.0,30.0,4.0
26.18434453010559,4095,0.0,30.0,4.0
26.19682025909424,4095,0.0,30.0,4.0
26.20665740966797,4095,0.0,30.0,4.0
26.21667170524597,4095,0.0,30.0,4.0
26.226436376571655,4095,0.0,30.0,4.0
26.236295461654663,4095,0.0,30.0,4.0
26.246842861175537,4095,0.0,30.0,4.0
26.25605344772339,4095,0.0,30.0,4.0
26.26616144180298,4095,0.0,30.0,4.0
26.273648977279663,4095,0.0,30.0,4.0
26.285807609558105,4095,0.0,30.0,4.0
26.296886920928955,4095,0.0,30.0,4.0
26.306111812591553,4095,0.0,30.0,4.0
26.31584119796753,4095,0.0,30.0,4.0
26.324991703033447,4095,0.0,30.0,4.0
26.33670139312744,4095,0.0,30.0,4.0
26.346794366836548,4095,0.0,30.0,4.0
26.35631513595581,4095,0.0,30.0,4.0
26.366841077804565,4095,0.0,30.0,4.0
26.373080015182495,4095,0.0,30.0,4.0
26.385957956314087,4095,0.0,30.0,4.0
26.396834135055542,4095,0.0,30.0,4.0
26.4066903591156,4095,0.0,30.0,4.0
26.416874885559082,4095,0.0,30.0,4.0
26.426042079925537,4095,0.0,30.0,4.0
26.436285495758057,4095,0.0,30.0,4.0
26.446776151657104,4095,0.0,30.0,4.0
26.456523180007935,4095,0.0,30.0,4.0
26.466763019561768,4095,0.0,30.0,4.0
26.474698305130005,4095,0.0,30.0,4.0
26.48608922958374,4095,0.0,30.0,4.0
26.496928215026855,4095,0.0,30.0,4.0
26.506490468978882,4095,0.0,30.0,4.0
26.516757249832153,4095,0.0,30.0,4.0
26.52586340904236,4095,0.0,30.0,4.0
26.536634922027588,4095,0.0,30.0,4.0
26.546709299087524,4095,0.0,30.0,4.0
26.556263208389282,4095,0.0,30.0,4.0
26.566426277160645,4095,0.0,30.0,4.0
26.575498342514038,4095,0.0,30.0,4.0
26.58642268180847,4095,0.0,30.0,4.0
26.59699535369873,4095,0.0,30.0,4.0
26.605441570281982,4095,0.0,30.0,4.0
26.61578679084778,4095,0.0,30.0,4.0
26.624821424484253,4095,0.0,30.0,4.0
26.636394262313843,4095,0.0,30.0,4.0
26.64687991142273,4095,0.0,30.0,4.0
26.656450510025024,4095,0.0,30.0,4.0
26.6668119430542,4095,0.0,30.0,4.0
26.671842575073242,4095,0.0,30.0,4.0
26.686721324920654,4095,0.0,30.0,4.0
26.696756839752197,4095,0.0,30.0,4.0
26.706759691238403,4095,0.0,30.0,4.0
26.716931343078613,4095,0.0,30.0,4.0
26.726147413253784,4095,0.0,30.0,4.0
26.735796213150024,4095,0.0,30.0,4.0
26.747973918914795,4095,0.0,30.0,4.0
26.75579571723938,4095,0.0,30.0,4.0
26.76331925392151,4095,0.0,30.0,4.0
26.776310920715332,4095,0.0,30.0,4.0
26.785871982574463,4095,0.0,30.0,4.0
26.79687786102295,4095,0.0,30.0,4.0
26.80660843849182,4095,0.0,30.0,4.0
26.816688776016235,4095,0.0,30.0,4.0
26.824105739593506,4095,0.0,30.0,4.0
26.83656597137451,4095,0.0,30.0,4.0
26.846802949905396,4095,0.0,30.0,4.0
26.856548070907593,4095,0.0,30.0,4.0
26.866307497024536,4095,0.0,30.0,4.0
26.87215518951416,4095,0.0,30.0,4.0
26.886297702789307,4095,0.0,30.0,4.0
26.89695692062378,4095,0.0,30.0,4.0
26.905502796173096,4095,0.0,30.0,4.0
26.91665267944336,4095,0.0,30.0,4.0
26.923519372940063,4095,0.0,30.0,4.0
26.932482481002808,4095,0.0,30.0,4.0
26.946918964385986,4095,0.0,30.0,4.0
26.95674753189087,4095,0.0,30.0,4.0
26.9640474319458,4095,0.0,30.0,4.0
26.97582697868347,4095,0.0,30.0,4.0
26.9866886138916,4095,0.0,30.0,4.0
26.996906518936157,4095,0.0,30.0,4.0
27.006092071533203,4095,0.0,30.0,4.0
27.01680612564087,4095,0.0,30.0,4.0
27.02660083770752,4095,0.0,30.0,4.0
27.036516904830933,4095,0.0,30.0,4.0
27.04692554473877,4095,0.0,30.0,4.0
27.05695605278015,4095,0.0,30.0,4.0
27.06626582145691,4095,0.0,30.0,4.0
27.072346210479736,4095,0.0,30.0,4.0
27.085745096206665,4095,0.0,30.0,4.0
27.096891164779663,4095,0.0,30.0,4.0
27.106613874435425,4095,0.0,30.0,4.0
27.116745948791504,4095,0.0,30.0,4.0
27.12523341178894,4095,0.0,30.0,4.0
27.136667490005493,4095,0.0,30.0,4.0
27.146881818771362,4095,0.0,30.0,4.0
27.157989740371704,4095,0.0,30.0,4.0
27.164182424545288,4095,0.0,30.0,4.0
27.176915168762207,4095,0.0,30.0,4.0
27.1857852935791,4095,0.0,30.0,4.0
27.196887016296387,4095,0.0,30.0,4.0
27.206220149993896,4095,0.0,30.0,4.0
27.216650009155273,4095,0.0,30.0,4.0
27.222885370254517,4095,0.0,30.0,4.0
27.23166823387146,4095,0.0,30.0,4.0
27.24674129486084,4095,0.0,30.0,4.0
27.25686526298523,4095,0.0,30.0,4.0
27.26633071899414,4095,0.0,30.0,4.0
27.269141912460327,4095,0.0,30.0,4.0
27.286304712295532,4095,0.0,30.0,4.0
27.296908140182495,4095,0.0,30.0,4.0
27.30677103996277,4095,0.0,30.0,4.0
27.316658973693848,4095,0.0,30.0,4.0
27.324684619903564,4095,0.0,30.0,4.0
27.33137845993042,4095,0.0,30.0,4.0
27.347144842147827,4095,0.0,30.0,4.0
27.35656976699829,4095,0.0,30.0,4.0
27.366296529769897,4095,0.0,30.0,4.0
27.376976490020752,4095,0.0,30.0,4.0
27.386388063430786,4095,0.0,30.0,4.0
27.39687991142273,4095,0.0,30.0,4.0
27.406397104263306,4095,0.0,30.0,4.0
27.416688203811646,4095,0.0,30.0,4.0
27.422456741333008,4095,0.0,30.0,4.0
27.436543464660645,4095,0.0,30.0,4.0
27.446786403656006,4095,0.0,30.0,4.0
27.454644441604614,4095,0.0,30.0,4.0
27.46644163131714,4095,0.0,30.0,4.0
27.473773956298828,4095,0.0,30.0,4.0
27.486236810684204,4095,0.0,30.0,4.0
27.496711492538452,4095,0.0,30.0,4.0
27.506311655044556,4095,0.0,30.0,4.0
27.51653552055359,4095,0.0,30.0,4.0
27.52408003807068,4095,0.0,30.0,4.0
27.531131744384766,4095,0.0,30.0,4.0
27.546983242034912,4095,0.0,30.0,4.0
27.55625319480896,4095,0.0,30.0,4.0
27.564101934432983,4095,0.0,30.0,4.0
27.576164960861206,4095,0.0,30.0,4.0
27.586284637451172,3423,0.0,30.0,4.0
27.596789598464966,4095,0.0,30.0,4.0
27.6056170463562,97,0.0,30.0,4.0
27.61627507209778,2990,0.0,30.0,4.0
27.625284671783447,26,0.0,30.0,4.0
27.63156795501709,4095,0.0,30.0,4.0
27.646419048309326,359,0.0,30.0,4.0
27.656445264816284,4095,0.0,30.0,4.0
27.666239738464355,67,0.0,30.0,4.0
27.67589020729065,3088,0.0,30.0,4.0
27.686479091644287,79,0.0,30.0,4.0
27.69655704498291,1511,0.0,30.0,4.0
27.70613193511963,82,0.0,30.0,4.0
27.71654438972473,0,0.0,30.0,4.0
27.726675987243652,271,0.0,30.0,4.0
27.732097625732422,0,0.0,30.0,4.0
27.742353677749634,346,0.0,30.0,4.0
27.751495122909546,0,0.0,30.0,4.0
27.766976594924927,113,0.0,30.0,4.0
27.776437044143677,0,0.0,30.0,4.0
27.78664255142212,114,0.0,30.0,4.0
27.796451330184937,0,0.0,30.0,4.0
27.799185037612915,121,0.0,30.0,4.0
27.816901445388794,126,0.0,30.0,4.0
27.824934244155884,138,0.0,30.0,4.0
27.835957288742065,193,0.0,30.0,4.0
27.84695839881897,133,0.0,30.0,4.0
27.856706142425537,197,0.0,30.0,4.0
27.866788387298584,144,0.0,30.0,4.0
27.875911235809326,211,0.0,30.0,4.0
27.883001804351807,51,0.0,30.0,4.0
27.897369146347046,389,0.0,30.0,4.0
27.90636682510376,112,0.0,30.0,4.0
27.91522216796875,434,0.0,30.0,4.0
27.923858404159546,50,0.0,30.0,4.0
27.930676221847534,2229,0.0,30.0,4.0
27.946614265441895,0,0.0,30.0,4.0
27.953417778015137,176,0.0,30.0,4.0
27.9666166305542,0,0.0,30.0,4.0
27.97643780708313,738,0.0,30.0,4.0
27.98445463180542,266,0.0,30.0,4.0
27.996809720993042,589,0.0,30.0,4.0
28.00662875175476,0,0.0,30.0,4.0
28.01604700088501,495,0.0,30.0,4.0
28.02223825454712,184,0.0,30.0,4.0
28.036433458328247,389,0.0,30.0,4.0
28.046764135360718,67,0.0,30.0,4.0
28.052592277526855,313,0.0,30.0,4.0
28.06668186187744,219,0.0,30.0,4.0
28.076794862747192,961,0.0,30.0,4.0
28.085416078567505,70,0.0,30.0,4.0
28.096503019332886,825,0.0,30.0,4.0
28.106842517852783,0,0.0,30.0,4.0
28.115655422210693,587,0.0,30.0,4.0
28.12208104133606,544,0.0,30.0,4.0
28.132827758789062,713,0.0,30.0,4.0
28.146701097488403,560,0.0,30.0,4.0
28.153820753097534,537,0.0,30.0,4.0
28.164578676223755,126,0.0,30.0,4.0
28.175892114639282,1072,0.0,30.0,4.0
28.18632459640503,485,0.0,30.0,4.0
28.196796655654907,463,0.0,30.0,4.0
28.2066810131073,56,0.0,30.0,4.0
28.21679997444153,554,0.0,30.0,4.0
28.22234296798706,267,0.0,30.0,4.0
28.236757278442383,1200,0.0,30.0,4.0
28.246612548828125,0,0.0,30.0,4.0
28.25362229347229,16,0.0,30.0,4.0
28.266650438308716,0,0.0,30.0,4.0
28.27563977241516,464,0.0,30.0,4.0
28.284351587295532,0,0.0,30.0,4.0
28.29639196395874,602,0.0,30.0,4.0
28.305375814437866,0,0.0,30.0,4.0
28.316678047180176,0,0.0,30.0,4.0
28.321979761123657,0,0.0,30.0,4.0
28.336283922195435,1010,0.0,30.0,4.0
28.3447585105896,0,0.0,30.0,4.0
28.35243272781372,0,0.0,30.0,4.0
28.366654634475708,0,0.0,30.0,4.0
28.375438928604126,630,0.0,30.0,4.0
28.385063886642456,176,0.0,30.0,4.0
28.396620512008667,499,0.0,30.0,4.0
28.40655541419983,309,0.0,30.0,4.0
28.41658926010132,1773,0.0,30.0,4.0
28.42151117324829,346,0.0,30.0,4.0
28.435980558395386,1931,0.0,30.0,4.0
28.446555852890015,1322,0.0,30.0,4.0
28.451367378234863,1143,0.0,30.0,4.0
28.466370582580566,921,0.0,30.0,4.0
28.474388599395752,929,0.0,30.0,4.0
28.483404874801636,1282,0.0,30.0,4.0
28.496800422668457,1925,0.0,30.0,4.0
28.506316900253296,1326,0.0,30.0,4.0
28.516825914382935,1789,0.0,30.0,4.0
28.521413326263428,1009,0.0,30.0,4.0
28.536667108535767,2045,0.0,30.0,4.0
28.547221422195435,1450,0.0,30.0,4.0
28.553519010543823,1535,0.0,30.0,4.0
28.565636157989502,981,0.0,30.0,4.0
28.57630157470703,1051,0.0,30.0,4.0
28.582645654678345,583,0.0,30.0,4.0
28.59655523300171,1040,0.0,30.0,4.0
28.60574460029602,383,0.0,30.0,4.0
28.616015911102295,751,0.0,30.0,4.0
28.623121738433838,289,0.0,30.0,4.0
28.631932497024536,464,0.0,30.0,4.0
28.646443843841553,0,0.0,30.0,4.0
28.651858806610107,295,0.0,30.0,4.0
28.666324138641357,0,0.0,30.0,4.0
28.67656373977661,493,0.0,30.0,4.0
28.681025505065918,269,0.0,30.0,4.0
28.696964263916016,460,0.0,30.0,4.0
28.70664930343628,131,0.0,30.0,4.0
28.714001417160034,407,0.0,30.0,4.0
28.7242329120636,80,0.0,30.0,4.0
28.73078417778015,798,0.0,30.0,4.0
28.746702194213867,193,0.0,30.0,4.0
28.750426530838013,709,0.0,30.0,4.0
28.765774965286255,209,0.0,30.0,4.0
28.77396011352539,630,0.0,30.0,4.0
28.786622047424316,226,0.0,30.0,4.0
28.79698944091797,689,0.0,30.0,4.0
28.806235551834106,768,0.0,30.0,4.0
28.816384315490723,740,0.0,30.0,4.0
28.826664209365845,721,0.0,30.0,4.0
28.836556911468506,1072,0.0,30.0,4.0
28.846794843673706,653,0.0,30.0,4.0
28.850186586380005,724,0.0,30.0,4.0
28.865722179412842,720,0.0,30.0,4.0
28.87391710281372,898,0.0,30.0,4.0
28.880820274353027,938,0.0,30.0,4.0
28.89675259590149,1357,0.0,30.0,4.0
28.899698495864868,1121,0.0,30.0,4.0
28.913963317871094,1270,0.0,30.0,4.0
28.922860860824585,1287,0.0,30.0,4.0
28.934873342514038,1163,0.0,30.0,4.0
28.946359157562256,1291,0.0,30.0,4.0
28.947354793548584,1331,0.0,30.0,4.0
28.957361459732056,1213,0.0,30.0,4.0
28.96736240386963,1170,0.0,30.0,4.0
28.977362632751465,1459,0.0,30.0,4.0
28.98736310005188,1292,0.0,30.0,4.0
28.997363090515137,1738,0.0,30.0,4.0
29.016050100326538,1226,0.0,30.0,4.0
29.02586579322815,1599,0.0,30.0,4.0
29.03645348548889,1271,0.0,30.0,4.0
29.0467209815979,1329,0.0,30.0,4.0
29.04973793029785,1184,0.0,30.0,4.0
29.05788016319275,1187,0.0,30.0,4.0
29.06694269180298,2144,0.0,30.0,4.0
29.076943397521973,1687,0.0,30.0,4.0
29.086944818496704,2240,0.0,30.0,4.0
29.098182201385498,1851,0.0,30.0,4.0
29.110158920288086,2295,0.0,30.0,4.0
29.121124267578125,1260,0.0,30.0,4.0
29.131104230880737,1725,0.0,30.0,4.0
29.142168045043945,1199,0.0,30.0,4.0
29.15608024597168,1728,0.0,30.0,4.0
29.166093587875366,1136,0.0,30.0,4.0
29.176146507263184,1506,0.0,30.0,4.0
29.18644666671753,0,0.0,30.0,4.0
29.196449995040894,1157,0.0,30.0,4.0
29.20644998550415,0,0.0,30.0,4.0
29.216458559036255,193,0.0,30.0,4.0
29.226582288742065,0,0.0,30.0,4.0
29.236650705337524,1316,0.0,30.0,4.0
29.24638342857361,0,0.0,30.0,4.0
29.255688428878784,964,0.0,30.0,4.0
29.263922929763794,1774,0.0,30.0,4.0
29.271931648254395,503,0.0,30.0,4.0
29.2808575630188,1436,0.0,30.0,4.0
29.29638409614563,2031,0.0,30.0,4.0
29.306502103805542,1648,0.0,30.0,4.0
29.308492183685303,2340,0.0,30.0,4.0
29.32085943222046,1770,0.0,30.0,4.0
29.33614420890808,2154,0.0,30.0,4.0
29.337650537490845,2039,0.0,30.0,4.0
29.348500967025757,2465,0.0,30.0,4.0
29.35849905014038,2065,0.0,30.0,4.0
29.36849880218506,2368,0.0,30.0,4.0
29.38461422920227,2019,0.0,30.0,4.0
29.394626140594482,1118,0.0,30.0,4.0
29.406486749649048,1712,0.0,30.0,4.0
29.416500329971313,292,0.0,30.0,4.0
29.426501512527466,2146,0.0,30.0,4.0
29.436718463897705,2624,0.0,30.0,4.0
29.446463108062744,2278,0.0,30.0,4.0
29.45654845237732,2736,0.0,30.0,4.0
29.463926792144775,2152,0.0,30.0,4.0
29.471954345703125,2213,0.0,30.0,4.0
29.480785369873047,2003,0.0,30.0,4.0
29.49638032913208,0,0.0,30.0,4.0
29.50654363632202,2157,0.0,30.0,4.0
29.516582250595093,0,0.0,30.0,4.0
29.52658247947693,2069,0.0,30.0,4.0
29.529959201812744,0,0.0,30.0,4.0
29.539983987808228,2173,0.0,30.0,4.0
29.54998517036438,0,0.0,30.0,4.0
29.566681623458862,529,0.0,30.0,4.0
29.569581031799316,2614,0.0,30.0,4.0
29.581764221191406,1968,0.0,30.0,4.0
29.593080520629883,28,0.0,30.0,4.0
29.603104829788208,2055,0.0,30.0,4.0
29.613133907318115,45,0.0,30.0,4.0
29.62286877632141,1189,0.0,30.0,4.0
29.632930994033813,67,0.0,30.0,4.0
29.64657998085022,751,0.0,30.0,4.0
29.653828620910645,93,0.0,30.0,4.0
29.665897130966187,1103,0.0,30.0,4.0
29.672205686569214,91,0.0,30.0,4.0
29.682698011398315,1018,0.0,30.0,4.0
29.696080446243286,109,0.0,30.0,4.0
29.706103563308716,880,0.0,30.0,4.0
29.71412968635559,90,0.0,30.0,4.0
29.72655987739563,2085,0.0,30.0,4.0
29.73666763305664,100,0.0,30.0,4.0
29.738096714019775,791,0.0,30.0,4.0
29.748111486434937,95,0.0,30.0,4.0
29.760385036468506,2192,0.0,30.0,4.0
29.77040386199951,0,0.0,30.0,4.0
29.78040075302124,821,0.0,30.0,4.0
29.790400981903076,102,0.0,30.0,4.0
29.800400972366333,828,0.0,30.0,4.0
29.81040072441101,110,0.0,30.0,4.0
29.82041072845459,2185,0.0,30.0,4.0
29.830427408218384,0,0.0,30.0,4.0
29.84623408317566,1453,0.0,30.0,4.0
29.847740411758423,0,0.0,30.0,4.0
29.865514278411865,171,0.0,30.0,4.0
29.875678539276123,0,0.0,30.0,4.0
29.880760669708252,192,0.0,30.0,4.0
29.896043300628662,0,0.0,30.0,4.0
29.906584978103638,240,0.0,30.0,4.0
29.912620544433594,0,0.0,30.0,4.0
29.92164134979248,210,0.0,30.0,4.0
29.93647313117981,0,0.0,30.0,4.0
29.94648575782776,230,0.0,30.0,4.0
29.956485748291016,0,0.0,30.0,4.0
29.96695876121521,275,0.0,30.0,4.0
29.967489004135132,0,0.0,30.0,4.0
29.98647451400757,297,0.0,30.0,4.0
29.99648642539978,0,0.0,30.0,4.0
30.006487607955933,299,0.0,30.0,4.0
