Timestamp,EMG Value,massage_speed,massage_duration,relaxment_level
0.001003265380859375,0,0.0,30.0,5.0
0.001003265380859375,715,0.0,30.0,5.0
0.011122465133666992,0,0.0,30.0,5.0
0.02112412452697754,688,0.0,30.0,5.0
0.03111720085144043,0,0.0,30.0,5.0
0.04111337661743164,720,0.0,30.0,5.0
0.05364060401916504,2446,0.0,30.0,5.0
0.06369781494140625,610,0.0,30.0,5.0
0.0749061107635498,2673,0.0,30.0,5.0
0.08492136001586914,545,0.0,30.0,5.0
0.09492063522338867,0,0.0,30.0,5.0
0.10492110252380371,534,0.0,30.0,5.0
0.11624550819396973,0,0.0,30.0,5.0
0.12630414962768555,416,0.0,30.0,5.0
0.1363048553466797,0,0.0,30.0,5.0
0.14630532264709473,406,0.0,30.0,5.0
0.15630578994750977,0,0.0,30.0,5.0
0.1674511432647705,446,0.0,30.0,5.0
0.1802518367767334,40,0.0,30.0,5.0
0.19028592109680176,797,0.0,30.0,5.0
0.2005150318145752,130,0.0,30.0,5.0
0.20977187156677246,1467,0.0,30.0,5.0
0.22015857696533203,2286,0.0,30.0,5.0
0.2222423553466797,942,0.0,30.0,5.0
0.2379014492034912,2397,0.0,30.0,5.0
0.24601387977600098,1648,0.0,30.0,5.0
0.25494885444641113,2385,0.0,30.0,5.0
0.27027440071105957,1974,0.0,30.0,5.0
0.27129530906677246,2325,0.0,30.0,5.0
0.28130674362182617,2047,0.0,30.0,5.0
0.2916891574859619,2303,0.0,30.0,5.0
0.3026769161224365,1211,0.0,30.0,5.0
0.31267547607421875,4095,0.0,30.0,5.0
0.32268214225769043,1826,0.0,30.0,5.0
0.3326749801635742,4095,0.0,30.0,5.0
0.3426785469055176,1818,0.0,30.0,5.0
0.3539600372314453,4095,0.0,30.0,5.0
0.36405515670776367,1748,0.0,30.0,5.0
0.37405896186828613,4095,0.0,30.0,5.0
0.3840672969818115,1658,0.0,30.0,5.0
0.3941009044647217,4095,0.0,30.0,5.0
0.40406107902526855,1546,0.0,30.0,5.0
0.4202890396118164,4095,0.0,30.0,5.0
0.4289839267730713,1488,0.0,30.0,5.0
0.44048476219177246,4095,0.0,30.0,5.0
0.4474809169769287,1438,0.0,30.0,5.0
0.46027350425720215,4095,0.0,30.0,5.0
0.47005701065063477,1350,0.0,30.0,5.0
0.4790971279144287,4095,0.0,30.0,5.0
0.48910021781921387,1299,0.0,30.0,5.0
0.4991328716278076,4095,0.0,30.0,5.0
0.5090985298156738,1279,0.0,30.0,5.0
0.5191245079040527,4095,0.0,30.0,5.0
0.5291123390197754,1142,0.0,30.0,5.0
0.539099931716919,4095,0.0,30.0,5.0
0.5491001605987549,1035,0.0,30.0,5.0
0.5602765083312988,4095,0.0,30.0,5.0
0.570289134979248,928,0.0,30.0,5.0
0.5802891254425049,4095,0.0,30.0,5.0
0.5897777080535889,918,0.0,30.0,5.0
0.5996954441070557,4095,0.0,30.0,5.0
0.6019468307495117,912,0.0,30.0,5.0
0.6119613647460938,4095,0.0,30.0,5.0
0.6301977634429932,937,0.0,30.0,5.0
0.6404428482055664,4095,0.0,30.0,5.0
0.6434333324432373,928,0.0,30.0,5.0
0.6569032669067383,4095,0.0,30.0,5.0
0.6701416969299316,928,0.0,30.0,5.0
0.6720733642578125,4095,0.0,30.0,5.0
0.6831393241882324,834,0.0,30.0,5.0
0.6931595802307129,4095,0.0,30.0,5.0
0.7031550407409668,848,0.0,30.0,5.0
0.713205099105835,4095,0.0,30.0,5.0
0.7231540679931641,807,0.0,30.0,5.0
0.7331578731536865,4016,0.0,30.0,5.0
0.7431540489196777,795,0.0,30.0,5.0
0.7531962394714355,3661,0.0,30.0,5.0
0.7631576061248779,1533,0.0,30.0,5.0
0.7740628719329834,0,0.0,30.0,5.0
0.7850031852722168,1635,0.0,30.0,5.0
0.7950100898742676,0,0.0,30.0,5.0
0.8065173625946045,1378,0.0,30.0,5.0
0.8165876865386963,0,0.0,30.0,5.0
0.8265876770019531,1439,0.0,30.0,5.0
0.8396501541137695,2461,0.0,30.0,5.0
0.8500957489013672,1299,0.0,30.0,5.0
0.8546223640441895,2142,0.0,30.0,5.0
0.8700075149536133,1076,0.0,30.0,5.0
0.8803303241729736,1654,0.0,30.0,5.0
0.8868401050567627,1011,0.0,30.0,5.0
0.9002764225006104,1206,0.0,30.0,5.0
0.9102885723114014,855,0.0,30.0,5.0
0.9203312397003174,855,0.0,30.0,5.0
0.9213292598724365,722,0.0,30.0,5.0
0.9326305389404297,474,0.0,30.0,5.0
0.9426500797271729,706,0.0,30.0,5.0
0.9602165222167969,560,0.0,30.0,5.0
0.9657814502716064,1662,0.0,30.0,5.0
0.9802513122558594,1928,0.0,30.0,5.0
0.9902832508087158,1269,0.0,30.0,5.0
1.0002636909484863,976,0.0,30.0,5.0
1.0102851390838623,1150,0.0,30.0,5.0
1.0203421115875244,895,0.0,30.0,5.0
1.0280888080596924,917,0.0,30.0,5.0
1.038196086883545,863,0.0,30.0,5.0
1.049924612045288,1936,0.0,30.0,5.0
1.0597801208496094,793,0.0,30.0,5.0
1.0699472427368164,688,0.0,30.0,5.0
1.0809342861175537,1859,0.0,30.0,5.0
1.0884180068969727,526,0.0,30.0,5.0
1.0973224639892578,1871,0.0,30.0,5.0
1.1047558784484863,1143,0.0,30.0,5.0
1.1199324131011963,1250,0.0,30.0,5.0
1.1209635734558105,511,0.0,30.0,5.0
1.1309707164764404,994,0.0,30.0,5.0
1.1409695148468018,1853,0.0,30.0,5.0
1.1509709358215332,619,0.0,30.0,5.0
1.1609721183776855,2059,0.0,30.0,5.0
1.1724579334259033,1883,0.0,30.0,5.0
1.1825435161590576,2069,0.0,30.0,5.0
1.2002761363983154,1030,0.0,30.0,5.0
1.2102851867675781,2055,0.0,30.0,5.0
1.2204866409301758,1136,0.0,30.0,5.0
1.2214832305908203,1591,0.0,30.0,5.0
1.2325851917266846,899,0.0,30.0,5.0
1.2426037788391113,974,0.0,30.0,5.0
1.2605164051055908,910,0.0,30.0,5.0
1.2698931694030762,846,0.0,30.0,5.0
1.280080795288086,890,0.0,30.0,5.0
1.2868704795837402,767,0.0,30.0,5.0
1.2968332767486572,969,0.0,30.0,5.0
1.3047399520874023,688,0.0,30.0,5.0
1.3199057579040527,914,0.0,30.0,5.0
1.320906400680542,718,0.0,30.0,5.0
1.3309314250946045,823,0.0,30.0,5.0
1.3409373760223389,749,0.0,30.0,5.0
1.350937843322754,1803,0.0,30.0,5.0
1.3609321117401123,659,0.0,30.0,5.0
1.3709375858306885,1735,0.0,30.0,5.0
1.3809359073638916,692,0.0,30.0,5.0
1.3909306526184082,714,0.0,30.0,5.0
1.4009380340576172,658,0.0,30.0,5.0
1.4109857082366943,1258,0.0,30.0,5.0
1.4209301471710205,487,0.0,30.0,5.0
1.4315462112426758,677,0.0,30.0,5.0
1.4502763748168945,544,0.0,30.0,5.0
1.4603047370910645,1232,0.0,30.0,5.0
1.472851276397705,463,0.0,30.0,5.0
1.4777109622955322,1169,0.0,30.0,5.0
1.4903559684753418,2086,0.0,30.0,5.0
1.4961919784545898,1182,0.0,30.0,5.0
1.50673246383667,2135,0.0,30.0,5.0
1.520576000213623,988,0.0,30.0,5.0
1.5288784503936768,1936,0.0,30.0,5.0
1.5401802062988281,767,0.0,30.0,5.0
1.5425529479980469,1589,0.0,30.0,5.0
1.5604534149169922,479,0.0,30.0,5.0
1.5705416202545166,1215,0.0,30.0,5.0
1.5806217193603516,2000,0.0,30.0,5.0
1.5816352367401123,974,0.0,30.0,5.0
1.5927932262420654,1260,0.0,30.0,5.0
1.6028032302856445,880,0.0,30.0,5.0
1.6128032207489014,1302,0.0,30.0,5.0
1.6228172779083252,715,0.0,30.0,5.0
1.6328065395355225,1406,0.0,30.0,5.0
1.6428253650665283,611,0.0,30.0,5.0
1.6528029441833496,1427,0.0,30.0,5.0
1.6698718070983887,495,0.0,30.0,5.0
1.6718668937683105,1493,0.0,30.0,5.0
1.6883094310760498,2067,0.0,30.0,5.0
1.6996254920959473,1553,0.0,30.0,5.0
1.7060327529907227,1969,0.0,30.0,5.0
1.7205374240875244,1408,0.0,30.0,5.0
1.7295475006103516,560,0.0,30.0,5.0
1.738689661026001,1165,0.0,30.0,5.0
1.750277042388916,2298,0.0,30.0,5.0
1.7602896690368652,1664,0.0,30.0,5.0
1.7702865600585938,2372,0.0,30.0,5.0
1.7802891731262207,1621,0.0,30.0,5.0
1.7822279930114746,2326,0.0,30.0,5.0
1.800339937210083,1563,0.0,30.0,5.0
1.8085918426513672,2414,0.0,30.0,5.0
1.8150699138641357,1583,0.0,30.0,5.0
1.827113151550293,2351,0.0,30.0,5.0
1.8371250629425049,1614,0.0,30.0,5.0
1.8472516536712646,2367,0.0,30.0,5.0
1.8604414463043213,1661,0.0,30.0,5.0
1.8704659938812256,1616,0.0,30.0,5.0
1.8804652690887451,1607,0.0,30.0,5.0
1.890470027923584,1263,0.0,30.0,5.0
1.9015393257141113,1666,0.0,30.0,5.0
1.9081707000732422,1552,0.0,30.0,5.0
1.920238971710205,1648,0.0,30.0,5.0
1.9248173236846924,880,0.0,30.0,5.0
1.940284252166748,1881,0.0,30.0,5.0
1.9493041038513184,1063,0.0,30.0,5.0
1.9542162418365479,1933,0.0,30.0,5.0
1.969836711883545,1200,0.0,30.0,5.0
1.9708335399627686,1777,0.0,30.0,5.0
1.980841875076294,0,0.0,30.0,5.0
1.9991564750671387,273,0.0,30.0,5.0
2.0097901821136475,0,0.0,30.0,5.0
2.010793685913086,305,0.0,30.0,5.0
2.0219573974609375,756,0.0,30.0,5.0
2.0325958728790283,357,0.0,30.0,5.0
2.0444469451904297,2498,0.0,30.0,5.0
2.054520845413208,401,0.0,30.0,5.0
2.0645179748535156,2311,0.0,30.0,5.0
2.074519395828247,1135,0.0,30.0,5.0
2.086045026779175,2384,0.0,30.0,5.0
2.096107006072998,1459,0.0,30.0,5.0
2.106105327606201,2470,0.0,30.0,5.0
2.1201093196868896,319,0.0,30.0,5.0
2.1297173500061035,2519,0.0,30.0,5.0
2.1387269496917725,272,0.0,30.0,5.0
2.1474859714508057,2426,0.0,30.0,5.0
2.1543679237365723,240,0.0,30.0,5.0
2.1700360774993896,2320,0.0,30.0,5.0
2.1710331439971924,1395,0.0,30.0,5.0
2.181082248687744,2109,0.0,30.0,5.0
2.1910810470581055,2032,0.0,30.0,5.0
2.204042434692383,1986,0.0,30.0,5.0
2.214116334915161,2143,0.0,30.0,5.0
2.224118232727051,1922,0.0,30.0,5.0
2.2341179847717285,752,0.0,30.0,5.0
2.2441179752349854,827,0.0,30.0,5.0
2.2541184425354004,105,0.0,30.0,5.0
2.264117479324341,508,0.0,30.0,5.0
2.274116277694702,72,0.0,30.0,5.0
2.2841179370880127,213,0.0,30.0,5.0
2.2957732677459717,91,0.0,30.0,5.0
2.310276508331299,2465,0.0,30.0,5.0
2.320296287536621,1413,0.0,30.0,5.0
2.332904100418091,2411,0.0,30.0,5.0
2.3377039432525635,2263,0.0,30.0,5.0
2.3504960536956787,2112,0.0,30.0,5.0
2.355694532394409,2297,0.0,30.0,5.0
2.3703112602233887,1909,0.0,30.0,5.0
2.3727362155914307,2161,0.0,30.0,5.0
2.387716770172119,1648,0.0,30.0,5.0
2.3977463245391846,1978,0.0,30.0,5.0
2.410276174545288,1477,0.0,30.0,5.0
2.4202880859375,1859,0.0,30.0,5.0
2.4302849769592285,1442,0.0,30.0,5.0
2.4403040409088135,1558,0.0,30.0,5.0
2.444338798522949,950,0.0,30.0,5.0
2.454371690750122,1437,0.0,30.0,5.0
2.464371919631958,267,0.0,30.0,5.0
2.474370002746582,1516,0.0,30.0,5.0
2.4843719005584717,208,0.0,30.0,5.0
2.494368076324463,1403,0.0,30.0,5.0
2.5104880332946777,253,0.0,30.0,5.0
2.516469717025757,1258,0.0,30.0,5.0
2.5264878273010254,2165,0.0,30.0,5.0
2.5364859104156494,1482,0.0,30.0,5.0
2.5504703521728516,1158,0.0,30.0,5.0
2.5603415966033936,1505,0.0,30.0,5.0
2.569810628890991,642,0.0,30.0,5.0
2.5807883739471436,1311,0.0,30.0,5.0
2.5879950523376465,391,0.0,30.0,5.0
2.596013069152832,1280,0.0,30.0,5.0
2.6051478385925293,1945,0.0,30.0,5.0
2.6151676177978516,1535,0.0,30.0,5.0
2.6251678466796875,685,0.0,30.0,5.0
2.6351675987243652,1454,0.0,30.0,5.0
2.6451759338378906,475,0.0,30.0,5.0
2.6572704315185547,1280,0.0,30.0,5.0
2.6702499389648438,912,0.0,30.0,5.0
2.680284261703491,1296,0.0,30.0,5.0
2.69026255607605,2352,0.0,30.0,5.0
2.7002623081207275,1472,0.0,30.0,5.0
2.71028470993042,2511,0.0,30.0,5.0
2.720258951187134,1535,0.0,30.0,5.0
2.7306368350982666,2110,0.0,30.0,5.0
2.731663227081299,1440,0.0,30.0,5.0
2.7416887283325195,2363,0.0,30.0,5.0
2.751685380935669,1600,0.0,30.0,5.0
2.770103693008423,2425,0.0,30.0,5.0
2.7795703411102295,1497,0.0,30.0,5.0
2.7873587608337402,2347,0.0,30.0,5.0
2.796875238418579,1408,0.0,30.0,5.0
2.8049893379211426,2358,0.0,30.0,5.0
2.8130338191986084,1264,0.0,30.0,5.0
2.8221182823181152,1127,0.0,30.0,5.0
2.835146427154541,1125,0.0,30.0,5.0
2.8451786041259766,935,0.0,30.0,5.0
2.8564090728759766,825,0.0,30.0,5.0
2.8664023876190186,642,0.0,30.0,5.0
2.877659797668457,1105,0.0,30.0,5.0
2.8902761936187744,1422,0.0,30.0,5.0
2.90028977394104,1062,0.0,30.0,5.0
2.910284996032715,1791,0.0,30.0,5.0
2.920288562774658,1063,0.0,30.0,5.0
2.930288076400757,1847,0.0,30.0,5.0
2.9402883052825928,1022,0.0,30.0,5.0
2.941877603530884,1765,0.0,30.0,5.0
2.951894998550415,1051,0.0,30.0,5.0
2.963151693344116,1900,0.0,30.0,5.0
2.979881763458252,809,0.0,30.0,5.0
2.990340232849121,1874,0.0,30.0,5.0
2.9955592155456543,614,0.0,30.0,5.0
3.007492780685425,1644,0.0,30.0,5.0
3.020134449005127,579,0.0,30.0,5.0
3.030339002609253,1229,0.0,30.0,5.0
3.0405569076538086,637,0.0,30.0,5.0
3.0405569076538086,1191,0.0,30.0,5.0
3.0531771183013916,706,0.0,30.0,5.0
3.0631895065307617,1152,0.0,30.0,5.0
3.073214054107666,577,0.0,30.0,5.0
3.083193063735962,1183,0.0,30.0,5.0
3.093189239501953,511,0.0,30.0,5.0
3.103198766708374,1203,0.0,30.0,5.0
3.11319637298584,1787,0.0,30.0,5.0
3.12467885017395,1371,0.0,30.0,5.0
3.134702205657959,1951,0.0,30.0,5.0
3.1446969509124756,1346,0.0,30.0,5.0
3.154740571975708,716,0.0,30.0,5.0
3.164699077606201,1227,0.0,30.0,5.0
3.174698829650879,867,0.0,30.0,5.0
3.1891098022460938,1281,0.0,30.0,5.0
3.200474739074707,935,0.0,30.0,5.0
3.207306385040283,1309,0.0,30.0,5.0
3.219722270965576,941,0.0,30.0,5.0
3.229729175567627,1309,0.0,30.0,5.0
3.2375335693359375,886,0.0,30.0,5.0
3.247553825378418,1364,0.0,30.0,5.0
3.260251522064209,1637,0.0,30.0,5.0
3.270721912384033,1426,0.0,30.0,5.0
3.271716594696045,1963,0.0,30.0,5.0
3.2817418575286865,1390,0.0,30.0,5.0
3.2917442321777344,2001,0.0,30.0,5.0
3.3030481338500977,1419,0.0,30.0,5.0
3.3131375312805176,2018,0.0,30.0,5.0
3.3231208324432373,1371,0.0,30.0,5.0
3.333153247833252,1909,0.0,30.0,5.0
3.3454341888427734,1280,0.0,30.0,5.0
3.355454921722412,1792,0.0,30.0,5.0
3.370276689529419,1267,0.0,30.0,5.0
3.380289077758789,1821,0.0,30.0,5.0
3.3902854919433594,1253,0.0,30.0,5.0
3.402672290802002,1778,0.0,30.0,5.0
3.4084999561309814,1176,0.0,30.0,5.0
3.419543981552124,1758,0.0,30.0,5.0
3.4250566959381104,495,0.0,30.0,5.0
3.4399683475494385,0,0.0,30.0,5.0
3.450371026992798,337,0.0,30.0,5.0
3.4542999267578125,0,0.0,30.0,5.0
3.4643185138702393,175,0.0,30.0,5.0
3.4743683338165283,0,0.0,30.0,5.0
3.4870827198028564,137,0.0,30.0,5.0
3.4970948696136475,0,0.0,30.0,5.0
3.507096767425537,93,0.0,30.0,5.0
3.517096757888794,239,0.0,30.0,5.0
3.5270962715148926,63,0.0,30.0,5.0
3.538691520690918,2366,0.0,30.0,5.0
3.545992612838745,0,0.0,30.0,5.0
3.557086944580078,2461,0.0,30.0,5.0
3.5702483654022217,0,0.0,30.0,5.0
3.5802667140960693,2451,0.0,30.0,5.0
3.590259552001953,0,0.0,30.0,5.0
3.6002612113952637,2448,0.0,30.0,5.0
3.610494613647461,0,0.0,30.0,5.0
3.620234966278076,2352,0.0,30.0,5.0
3.6302056312561035,795,0.0,30.0,5.0
3.638561487197876,2342,0.0,30.0,5.0
3.6489415168762207,1473,0.0,30.0,5.0
3.6602463722229004,2261,0.0,30.0,5.0
3.6682584285736084,650,0.0,30.0,5.0
3.676323413848877,2147,0.0,30.0,5.0
3.686324119567871,1440,0.0,30.0,5.0
3.6975462436676025,2058,0.0,30.0,5.0
3.7075586318969727,1823,0.0,30.0,5.0
3.720250129699707,2001,0.0,30.0,5.0
3.730262517929077,2682,0.0,30.0,5.0
3.741065502166748,1891,0.0,30.0,5.0
3.7420706748962402,2438,0.0,30.0,5.0
3.752105712890625,1840,0.0,30.0,5.0
3.7621092796325684,2112,0.0,30.0,5.0
3.772130012512207,1741,0.0,30.0,5.0
3.789569139480591,1890,0.0,30.0,5.0
3.8005924224853516,1507,0.0,30.0,5.0
3.810580015182495,1667,0.0,30.0,5.0
3.8121817111968994,1279,0.0,30.0,5.0
3.8290014266967773,1488,0.0,30.0,5.0
3.839798927307129,1105,0.0,30.0,5.0
3.843926429748535,1337,0.0,30.0,5.0
3.858384370803833,1481,0.0,30.0,5.0
3.8699865341186523,1346,0.0,30.0,5.0
3.879020929336548,859,0.0,30.0,5.0
3.888106346130371,1567,0.0,30.0,5.0
3.898101329803467,1739,0.0,30.0,5.0
3.9080989360809326,1791,0.0,30.0,5.0
3.9180994033813477,1806,0.0,30.0,5.0
3.928131580352783,2079,0.0,30.0,5.0
3.9380970001220703,1546,0.0,30.0,5.0
3.94809889793396,2030,0.0,30.0,5.0
3.959284782409668,1725,0.0,30.0,5.0
3.9702768325805664,1625,0.0,30.0,5.0
3.9802892208099365,1552,0.0,30.0,5.0
3.9902889728546143,1527,0.0,30.0,5.0
4.00028920173645,1235,0.0,30.0,5.0
4.010289430618286,1573,0.0,30.0,5.0
4.020299434661865,1251,0.0,30.0,5.0
4.030285835266113,1702,0.0,30.0,5.0
4.042730093002319,1043,0.0,30.0,5.0
4.047886610031128,1803,0.0,30.0,5.0
4.059843301773071,938,0.0,30.0,5.0
4.069488763809204,1985,0.0,30.0,5.0
4.079787731170654,900,0.0,30.0,5.0
4.0875701904296875,2165,0.0,30.0,5.0
4.095604181289673,867,0.0,30.0,5.0
4.103704929351807,2367,0.0,30.0,5.0
4.1146838665008545,831,0.0,30.0,5.0
4.124693393707275,1952,0.0,30.0,5.0
4.13471245765686,746,0.0,30.0,5.0
4.144680023193359,1843,0.0,30.0,5.0
4.154680013656616,756,0.0,30.0,5.0
4.1646833419799805,1856,0.0,30.0,5.0
4.180276870727539,720,0.0,30.0,5.0
4.190285682678223,1773,0.0,30.0,5.0
4.200291633605957,688,0.0,30.0,5.0
4.2102766036987305,1593,0.0,30.0,5.0
4.220288991928101,640,0.0,30.0,5.0
4.23028826713562,1520,0.0,30.0,5.0
4.240288019180298,606,0.0,30.0,5.0
4.252559661865234,1417,0.0,30.0,5.0
4.25844931602478,594,0.0,30.0,5.0
4.270353078842163,1214,0.0,30.0,5.0
4.274693727493286,551,0.0,30.0,5.0
4.290225505828857,1142,0.0,30.0,5.0
4.29922890663147,546,0.0,30.0,5.0
4.304346799850464,1103,0.0,30.0,5.0
4.320437431335449,864,0.0,30.0,5.0
4.330445051193237,1189,0.0,30.0,5.0
4.340447902679443,1296,0.0,30.0,5.0
4.343291759490967,1615,0.0,30.0,5.0
4.353341102600098,1642,0.0,30.0,5.0
4.364901781082153,1723,0.0,30.0,5.0
4.374731540679932,1983,0.0,30.0,5.0
4.384778261184692,1799,0.0,30.0,5.0
4.39477801322937,2085,0.0,30.0,5.0
4.40477991104126,1848,0.0,30.0,5.0
4.414777994155884,2067,0.0,30.0,5.0
4.430368900299072,1808,0.0,30.0,5.0
4.440419435501099,2024,0.0,30.0,5.0
4.450380802154541,1738,0.0,30.0,5.0
4.461835622787476,1906,0.0,30.0,5.0
4.470069646835327,1650,0.0,30.0,5.0
4.479855298995972,1856,0.0,30.0,5.0
4.488409519195557,1454,0.0,30.0,5.0
4.496450662612915,1533,0.0,30.0,5.0
4.504649877548218,1143,0.0,30.0,5.0
4.512718439102173,1214,0.0,30.0,5.0
4.5217814445495605,923,0.0,30.0,5.0
4.531792640686035,944,0.0,30.0,5.0
4.541796684265137,679,0.0,30.0,5.0
4.5517988204956055,670,0.0,30.0,5.0
4.561832666397095,470,0.0,30.0,5.0
4.5731611251831055,457,0.0,30.0,5.0
4.588647127151489,337,0.0,30.0,5.0
4.598662376403809,858,0.0,30.0,5.0
4.608677864074707,825,0.0,30.0,5.0
4.620275497436523,1003,0.0,30.0,5.0
4.630292177200317,976,0.0,30.0,5.0
4.640286445617676,1119,0.0,30.0,5.0
4.6502768993377686,1058,0.0,30.0,5.0
4.660285711288452,1168,0.0,30.0,5.0
4.67040753364563,1099,0.0,30.0,5.0
4.680392026901245,1149,0.0,30.0,5.0
4.690191268920898,884,0.0,30.0,5.0
4.700616359710693,951,0.0,30.0,5.0
4.706133127212524,897,0.0,30.0,5.0
4.720432996749878,1097,0.0,30.0,5.0
4.721430063247681,880,0.0,30.0,5.0
4.740249872207642,1077,0.0,30.0,5.0
4.750269412994385,851,0.0,30.0,5.0
4.760260105133057,1072,0.0,30.0,5.0
4.763173818588257,778,0.0,30.0,5.0
4.773247003555298,1049,0.0,30.0,5.0
4.783263206481934,770,0.0,30.0,5.0
4.793256998062134,1008,0.0,30.0,5.0
4.8032472133636475,720,0.0,30.0,5.0
4.813250541687012,994,0.0,30.0,5.0
4.824549913406372,693,0.0,30.0,5.0
4.834573030471802,981,0.0,30.0,5.0
4.844571828842163,551,0.0,30.0,5.0
4.854569435119629,959,0.0,30.0,5.0
4.864577054977417,473,0.0,30.0,5.0
4.880458116531372,903,0.0,30.0,5.0
4.889854907989502,400,0.0,30.0,5.0
4.897776126861572,861,0.0,30.0,5.0
4.907142639160156,182,0.0,30.0,5.0
4.919714450836182,796,0.0,30.0,5.0
4.928715944290161,193,0.0,30.0,5.0
4.936812877655029,783,0.0,30.0,5.0
4.9477739334106445,269,0.0,30.0,5.0
4.960275173187256,690,0.0,30.0,5.0
4.970287799835205,419,0.0,30.0,5.0
4.980287313461304,637,0.0,30.0,5.0
4.99054217338562,379,0.0,30.0,5.0
4.991542816162109,565,0.0,30.0,5.0
5.001558303833008,368,0.0,30.0,5.0
5.011556625366211,506,0.0,30.0,5.0
5.021558523178101,353,0.0,30.0,5.0
5.031561851501465,455,0.0,30.0,5.0
5.041558504104614,371,0.0,30.0,5.0
5.057626008987427,431,0.0,30.0,5.0
5.07027530670166,399,0.0,30.0,5.0
5.080286502838135,388,0.0,30.0,5.0
5.091334342956543,375,0.0,30.0,5.0
5.09973931312561,346,0.0,30.0,5.0
5.1097235679626465,307,0.0,30.0,5.0
5.120455026626587,307,0.0,30.0,5.0
5.126260757446289,335,0.0,30.0,5.0
5.137437343597412,292,0.0,30.0,5.0
5.145449876785278,336,0.0,30.0,5.0
5.155877351760864,247,0.0,30.0,5.0
5.165898323059082,322,0.0,30.0,5.0
5.17590069770813,725,0.0,30.0,5.0
5.185898780822754,844,0.0,30.0,5.0
5.196064472198486,2243,0.0,30.0,5.0
5.210276126861572,2099,0.0,30.0,5.0
5.220285415649414,1954,0.0,30.0,5.0
5.230288505554199,1998,0.0,30.0,5.0
5.240288257598877,1727,0.0,30.0,5.0
5.25029730796814,1821,0.0,30.0,5.0
5.260555744171143,1521,0.0,30.0,5.0
5.261553049087524,1650,0.0,30.0,5.0
5.27156662940979,1265,0.0,30.0,5.0
5.281570911407471,219,0.0,30.0,5.0
5.291587591171265,806,0.0,30.0,5.0
5.30979323387146,241,0.0,30.0,5.0
5.320608615875244,430,0.0,30.0,5.0
5.330681085586548,213,0.0,30.0,5.0
5.339565277099609,31,0.0,30.0,5.0
5.347625970840454,176,0.0,30.0,5.0
5.353569030761719,1689,0.0,30.0,5.0
5.363584518432617,959,0.0,30.0,5.0
5.375160455703735,2421,0.0,30.0,5.0
5.386129856109619,1279,0.0,30.0,5.0
5.396162033081055,2166,0.0,30.0,5.0
5.406130075454712,1567,0.0,30.0,5.0
5.416129112243652,1638,0.0,30.0,5.0
5.430274486541748,314,0.0,30.0,5.0
5.440287113189697,2028,0.0,30.0,5.0
5.450463771820068,351,0.0,30.0,5.0
5.457167863845825,1901,0.0,30.0,5.0
5.4671831130981445,310,0.0,30.0,5.0
5.480303764343262,1781,0.0,30.0,5.0
5.490480899810791,242,0.0,30.0,5.0
5.490480899810791,1675,0.0,30.0,5.0
5.5014262199401855,875,0.0,30.0,5.0
5.520111322402954,1616,0.0,30.0,5.0
5.530838489532471,1287,0.0,30.0,5.0
5.540246248245239,1552,0.0,30.0,5.0
5.548262357711792,2136,0.0,30.0,5.0
5.553487777709961,1472,0.0,30.0,5.0
5.570600748062134,2315,0.0,30.0,5.0
5.57159948348999,1392,0.0,30.0,5.0
5.581597089767456,2287,0.0,30.0,5.0
5.591600179672241,1275,0.0,30.0,5.0
5.601603031158447,2224,0.0,30.0,5.0
5.619667053222656,1278,0.0,30.0,5.0
5.629853963851929,2138,0.0,30.0,5.0
5.6308510303497314,1202,0.0,30.0,5.0
5.640872240066528,1929,0.0,30.0,5.0
5.650886535644531,1142,0.0,30.0,5.0
5.660865545272827,1823,0.0,30.0,5.0
5.670868873596191,1086,0.0,30.0,5.0
5.680873155593872,1615,0.0,30.0,5.0
5.690872430801392,991,0.0,30.0,5.0
5.700868844985962,1648,0.0,30.0,5.0
5.710868835449219,1031,0.0,30.0,5.0
5.720866680145264,1505,0.0,30.0,5.0
5.73947286605835,964,0.0,30.0,5.0
5.7494494915008545,1507,0.0,30.0,5.0
5.7557244300842285,925,0.0,30.0,5.0
5.769718170166016,1392,0.0,30.0,5.0
5.7787556648254395,930,0.0,30.0,5.0
5.786897420883179,1324,0.0,30.0,5.0
5.797820806503296,851,0.0,30.0,5.0
5.8078389167785645,1189,0.0,30.0,5.0
5.817819118499756,841,0.0,30.0,5.0
5.827819108963013,1082,0.0,30.0,5.0
5.839086532592773,799,0.0,30.0,5.0
5.849101781845093,1040,0.0,30.0,5.0
5.860275506973267,805,0.0,30.0,5.0
5.870928525924683,1011,0.0,30.0,5.0
5.871930837631226,752,0.0,30.0,5.0
5.883506774902344,987,0.0,30.0,5.0
5.89445161819458,663,0.0,30.0,5.0
5.904486179351807,953,0.0,30.0,5.0
5.9144511222839355,608,0.0,30.0,5.0
5.926256895065308,1515,0.0,30.0,5.0
5.936269998550415,1840,0.0,30.0,5.0
5.950535535812378,1565,0.0,30.0,5.0
5.95353364944458,4095,0.0,30.0,5.0
5.970501899719238,1307,0.0,30.0,5.0
5.974315643310547,4095,0.0,30.0,5.0
5.989857196807861,1601,0.0,30.0,5.0
5.99788236618042,4095,0.0,30.0,5.0
6.004600524902344,1650,0.0,30.0,5.0
6.020457983016968,4095,0.0,30.0,5.0
6.030498504638672,1617,0.0,30.0,5.0
6.040508031845093,2192,0.0,30.0,5.0
6.046107292175293,1552,0.0,30.0,5.0
6.05610990524292,778,0.0,30.0,5.0
6.070249557495117,1523,0.0,30.0,5.0
6.080258131027222,341,0.0,30.0,5.0
6.090160369873047,1296,0.0,30.0,5.0
6.100475788116455,361,0.0,30.0,5.0
6.1014723777771,1149,0.0,30.0,5.0
6.111492872238159,1590,0.0,30.0,5.0
6.121527194976807,993,0.0,30.0,5.0
6.139355897903442,4095,0.0,30.0,5.0
6.1435980796813965,852,0.0,30.0,5.0
6.160421848297119,4095,0.0,30.0,5.0
6.170384883880615,710,0.0,30.0,5.0
6.180681467056274,4095,0.0,30.0,5.0
6.185734748840332,597,0.0,30.0,5.0
6.200337171554565,4095,0.0,30.0,5.0
6.202763319015503,507,0.0,30.0,5.0
6.219525098800659,4095,0.0,30.0,5.0
6.23024845123291,416,0.0,30.0,5.0
6.240259885787964,2416,0.0,30.0,5.0
6.250620126724243,518,0.0,30.0,5.0
6.2516210079193115,1685,0.0,30.0,5.0
6.261641979217529,503,0.0,30.0,5.0
6.27164101600647,1359,0.0,30.0,5.0
6.281637668609619,496,0.0,30.0,5.0
6.291640996932983,1147,0.0,30.0,5.0
6.301648378372192,487,0.0,30.0,5.0
6.311644554138184,956,0.0,30.0,5.0
6.321641206741333,466,0.0,30.0,5.0
6.331656217575073,822,0.0,30.0,5.0
6.34163761138916,403,0.0,30.0,5.0
6.3516435623168945,314,0.0,30.0,5.0
6.369395971298218,320,0.0,30.0,5.0
6.380378007888794,166,0.0,30.0,5.0
6.388813495635986,228,0.0,30.0,5.0
6.397820472717285,1,0.0,30.0,5.0
6.407211542129517,128,0.0,30.0,5.0
6.415234804153442,0,0.0,30.0,5.0
6.423257112503052,46,0.0,30.0,5.0
6.4332592487335205,0,0.0,30.0,5.0
6.443262100219727,16,0.0,30.0,5.0
6.454498529434204,0,0.0,30.0,5.0
6.464518785476685,0,0.0,30.0,5.0
6.474525690078735,0,0.0,30.0,5.0
6.484518766403198,0,0.0,30.0,5.0
6.4945220947265625,0,0.0,30.0,5.0
6.504515171051025,0,0.0,30.0,5.0
6.514518737792969,0,0.0,30.0,5.0
6.524518966674805,1059,0.0,30.0,5.0
6.534517049789429,0,0.0,30.0,5.0
6.544518709182739,2327,0.0,30.0,5.0
6.554521322250366,0,0.0,30.0,5.0
6.564518690109253,2638,0.0,30.0,5.0
6.58009147644043,0,0.0,30.0,5.0
6.590435028076172,2659,0.0,30.0,5.0
6.599722862243652,0,0.0,30.0,5.0
6.605682611465454,2635,0.0,30.0,5.0
6.620302438735962,0,0.0,30.0,5.0
6.629313230514526,2523,0.0,30.0,5.0
6.637397527694702,0,0.0,30.0,5.0
6.65038537979126,2511,0.0,30.0,5.0
6.659574031829834,0,0.0,30.0,5.0
6.670302391052246,420,0.0,30.0,5.0
6.680327653884888,0,0.0,30.0,5.0
6.688263177871704,0,0.0,30.0,5.0
6.700020790100098,0,0.0,30.0,5.0
6.71001672744751,0,0.0,30.0,5.0
6.716355800628662,0,0.0,30.0,5.0
6.726375579833984,2697,0.0,30.0,5.0
6.7364113330841064,0,0.0,30.0,5.0
6.746375560760498,2615,0.0,30.0,5.0
6.756375551223755,1211,0.0,30.0,5.0
6.7663750648498535,2293,0.0,30.0,5.0
6.776376724243164,2745,0.0,30.0,5.0
6.789987087249756,2029,0.0,30.0,5.0
6.800503969192505,2832,0.0,30.0,5.0
6.808620929718018,1831,0.0,30.0,5.0
6.819056987762451,3071,0.0,30.0,5.0
6.83012580871582,1590,0.0,30.0,5.0
6.8366475105285645,3054,0.0,30.0,5.0
6.846662521362305,1451,0.0,30.0,5.0
6.860276222229004,2992,0.0,30.0,5.0
6.870288372039795,1299,0.0,30.0,5.0
6.880284786224365,2775,0.0,30.0,5.0
6.890420436859131,1226,0.0,30.0,5.0
6.891458511352539,2417,0.0,30.0,5.0
6.903112888336182,1117,0.0,30.0,5.0
6.913158416748047,2470,0.0,30.0,5.0
6.923133611679077,1041,0.0,30.0,5.0
6.9331724643707275,2195,0.0,30.0,5.0
6.94313645362854,1061,0.0,30.0,5.0
6.953139543533325,2071,0.0,30.0,5.0
6.963136196136475,1136,0.0,30.0,5.0
6.9731364250183105,1936,0.0,30.0,5.0
6.983136892318726,1071,0.0,30.0,5.0
7.000487804412842,1735,0.0,30.0,5.0
7.010440111160278,1061,0.0,30.0,5.0
7.019996881484985,1914,0.0,30.0,5.0
7.024104595184326,1040,0.0,30.0,5.0
7.039781808853149,1883,0.0,30.0,5.0
7.047805070877075,1017,0.0,30.0,5.0
7.054604768753052,1685,0.0,30.0,5.0
7.064641952514648,983,0.0,30.0,5.0
7.074642896652222,1597,0.0,30.0,5.0
7.0846357345581055,974,0.0,30.0,5.0
7.094639539718628,1582,0.0,30.0,5.0
7.104635953903198,939,0.0,30.0,5.0
7.114655017852783,1517,0.0,30.0,5.0
7.124636888504028,834,0.0,30.0,5.0
7.140275955200195,1360,0.0,30.0,5.0
7.150284767150879,839,0.0,30.0,5.0
7.160942792892456,1216,0.0,30.0,5.0
7.169445276260376,800,0.0,30.0,5.0
7.174838304519653,1266,0.0,30.0,5.0
7.190274715423584,784,0.0,30.0,5.0
7.200531959533691,1232,0.0,30.0,5.0
7.201529264450073,739,0.0,30.0,5.0
7.219882965087891,1248,0.0,30.0,5.0
7.230380296707153,736,0.0,30.0,5.0
7.234064817428589,1104,0.0,30.0,5.0
7.249914646148682,687,0.0,30.0,5.0
7.255641222000122,1034,0.0,30.0,5.0
7.269762992858887,662,0.0,30.0,5.0
7.279901027679443,958,0.0,30.0,5.0
7.28691291809082,611,0.0,30.0,5.0
7.296940565109253,986,0.0,30.0,5.0
7.306938409805298,591,0.0,30.0,5.0
7.316937685012817,835,0.0,30.0,5.0
7.3269383907318115,560,0.0,30.0,5.0
7.336938142776489,773,0.0,30.0,5.0
7.346941232681274,496,0.0,30.0,5.0
7.360275030136108,671,0.0,30.0,5.0
7.37028431892395,915,0.0,30.0,5.0
7.380287408828735,1355,0.0,30.0,5.0
7.390287637710571,790,0.0,30.0,5.0
7.40028715133667,685,0.0,30.0,5.0
7.410299062728882,377,0.0,30.0,5.0
7.413853406906128,642,0.0,30.0,5.0
7.42397403717041,336,0.0,30.0,5.0
7.440300226211548,597,0.0,30.0,5.0
7.450328588485718,313,0.0,30.0,5.0
7.4602744579315186,1042,0.0,30.0,5.0
7.469944000244141,289,0.0,30.0,5.0
7.478960752487183,1965,0.0,30.0,5.0
7.487071990966797,1874,0.0,30.0,5.0
7.498976230621338,1886,0.0,30.0,5.0
7.510481595993042,2122,0.0,30.0,5.0
7.520488739013672,1669,0.0,30.0,5.0
7.530488729476929,2095,0.0,30.0,5.0
7.5404953956604,1489,0.0,30.0,5.0
7.550487995147705,1968,0.0,30.0,5.0
7.557128429412842,1200,0.0,30.0,5.0
7.570277214050293,1808,0.0,30.0,5.0
7.580294370651245,1054,0.0,30.0,5.0
7.590289354324341,1680,0.0,30.0,5.0
7.60029149055481,900,0.0,30.0,5.0
7.610292673110962,1497,0.0,30.0,5.0
7.620289325714111,735,0.0,30.0,5.0
7.630270957946777,1575,0.0,30.0,5.0
7.640298366546631,675,0.0,30.0,5.0
7.651409387588501,1435,0.0,30.0,5.0
7.659504413604736,720,0.0,30.0,5.0
7.670002698898315,1440,0.0,30.0,5.0
7.680448770523071,802,0.0,30.0,5.0
7.689563512802124,1311,0.0,30.0,5.0
7.695181846618652,813,0.0,30.0,5.0
7.703424692153931,1265,0.0,30.0,5.0
7.713528156280518,821,0.0,30.0,5.0
7.723522901535034,894,0.0,30.0,5.0
7.736300230026245,611,0.0,30.0,5.0
7.746377944946289,769,0.0,30.0,5.0
7.756350755691528,529,0.0,30.0,5.0
7.766350269317627,784,0.0,30.0,5.0
7.776350259780884,592,0.0,30.0,5.0
7.786350250244141,469,0.0,30.0,5.0
7.796350479125977,816,0.0,30.0,5.0
7.806349992752075,527,0.0,30.0,5.0
7.816350221633911,766,0.0,30.0,5.0
7.830274343490601,470,0.0,30.0,5.0
7.84028697013855,712,0.0,30.0,5.0
7.843270540237427,681,0.0,30.0,5.0
7.8599934577941895,670,0.0,30.0,5.0
7.870599985122681,661,0.0,30.0,5.0
7.879709720611572,677,0.0,30.0,5.0
7.890270709991455,464,0.0,30.0,5.0
7.898298263549805,641,0.0,30.0,5.0
7.903712272644043,467,0.0,30.0,5.0
7.920275449752808,559,0.0,30.0,5.0
7.930284261703491,592,0.0,30.0,5.0
7.940292596817017,397,0.0,30.0,5.0
7.950701713562012,591,0.0,30.0,5.0
7.951696157455444,333,0.0,30.0,5.0
7.962953329086304,580,0.0,30.0,5.0
7.972987413406372,302,0.0,30.0,5.0
7.982983589172363,573,0.0,30.0,5.0
7.992987632751465,235,0.0,30.0,5.0
8.002983808517456,527,0.0,30.0,5.0
8.012984037399292,208,0.0,30.0,5.0
8.022990942001343,468,0.0,30.0,5.0
8.032981634140015,249,0.0,30.0,5.0
8.043013572692871,467,0.0,30.0,5.0
8.052980184555054,208,0.0,30.0,5.0
8.069597959518433,429,0.0,30.0,5.0
8.080301284790039,191,0.0,30.0,5.0
8.088926315307617,402,0.0,30.0,5.0
8.096975564956665,174,0.0,30.0,5.0
8.103034496307373,332,0.0,30.0,5.0
8.119959115982056,181,0.0,30.0,5.0
8.130223751068115,377,0.0,30.0,5.0
8.132219552993774,132,0.0,30.0,5.0
8.142244577407837,321,0.0,30.0,5.0
8.152236223220825,94,0.0,30.0,5.0
8.16223669052124,294,0.0,30.0,5.0
8.172236442565918,73,0.0,30.0,5.0
8.182236433029175,256,0.0,30.0,5.0
8.192232847213745,0,0.0,30.0,5.0
8.204034090042114,241,0.0,30.0,5.0
8.217315673828125,80,0.0,30.0,5.0
8.22733187675476,2123,0.0,30.0,5.0
8.23733139038086,295,0.0,30.0,5.0
8.247331619262695,2224,0.0,30.0,5.0
8.260273694992065,557,0.0,30.0,5.0
8.27059817314148,2070,0.0,30.0,5.0
8.271597146987915,546,0.0,30.0,5.0
8.290338039398193,1911,0.0,30.0,5.0
8.29165768623352,213,0.0,30.0,5.0
8.309836387634277,1782,0.0,30.0,5.0
8.319905042648315,0,0.0,30.0,5.0
8.328922510147095,1680,0.0,30.0,5.0
8.336409330368042,0,0.0,30.0,5.0
8.344425439834595,1712,0.0,30.0,5.0
8.352501153945923,0,0.0,30.0,5.0
8.365917205810547,1669,0.0,30.0,5.0
8.375995635986328,610,0.0,30.0,5.0
8.385997533798218,1744,0.0,30.0,5.0
8.395997524261475,1925,0.0,30.0,5.0
8.405997514724731,1733,0.0,30.0,5.0
8.415997743606567,2384,0.0,30.0,5.0
8.429477214813232,1746,0.0,30.0,5.0
8.440274953842163,2343,0.0,30.0,5.0
8.450297832489014,1710,0.0,30.0,5.0
8.46028733253479,2144,0.0,30.0,5.0
8.470287799835205,1667,0.0,30.0,5.0
8.480287790298462,2064,0.0,30.0,5.0
8.49028754234314,1608,0.0,30.0,5.0
8.500482082366943,1835,0.0,30.0,5.0
8.510092973709106,1502,0.0,30.0,5.0
8.520275354385376,1819,0.0,30.0,5.0
8.528288125991821,1382,0.0,30.0,5.0
8.537424325942993,1744,0.0,30.0,5.0
8.545440196990967,1386,0.0,30.0,5.0
8.553976058959961,1754,0.0,30.0,5.0
8.564003467559814,1281,0.0,30.0,5.0
8.57400369644165,1777,0.0,30.0,5.0
8.584001779556274,1235,0.0,30.0,5.0
8.59400725364685,1650,0.0,30.0,5.0
8.604003429412842,1143,0.0,30.0,5.0
8.614001512527466,1652,0.0,30.0,5.0
8.624003410339355,1107,0.0,30.0,5.0
8.634003400802612,1600,0.0,30.0,5.0
8.644003629684448,1052,0.0,30.0,5.0
8.654000282287598,1565,0.0,30.0,5.0
8.664003849029541,1014,0.0,30.0,5.0
8.674007892608643,1543,0.0,30.0,5.0
8.68400263786316,991,0.0,30.0,5.0
8.6940016746521,1567,0.0,30.0,5.0
8.710330486297607,928,0.0,30.0,5.0
8.72046685218811,1513,0.0,30.0,5.0
8.728301048278809,902,0.0,30.0,5.0
8.738101959228516,1515,0.0,30.0,5.0
8.746118545532227,837,0.0,30.0,5.0
8.753733396530151,1523,0.0,30.0,5.0
8.7698495388031,784,0.0,30.0,5.0
8.77083444595337,1521,0.0,30.0,5.0
8.780853033065796,771,0.0,30.0,5.0
8.790853023529053,1447,0.0,30.0,5.0
8.80085301399231,715,0.0,30.0,5.0
8.810852766036987,1407,0.0,30.0,5.0
8.820849418640137,699,0.0,30.0,5.0
8.830852746963501,1247,0.0,30.0,5.0
8.840852975845337,698,0.0,30.0,5.0
8.850864887237549,1255,0.0,30.0,5.0
8.86085295677185,670,0.0,30.0,5.0
8.872467994689941,1145,0.0,30.0,5.0
8.882504940032959,592,0.0,30.0,5.0
8.900248050689697,995,0.0,30.0,5.0
8.910256624221802,559,0.0,30.0,5.0
8.920376300811768,997,0.0,30.0,5.0
8.929537057876587,4095,0.0,30.0,5.0
8.936498641967773,885,0.0,30.0,5.0
8.945490598678589,4095,0.0,30.0,5.0
8.952054977416992,851,0.0,30.0,5.0
8.969655990600586,4095,0.0,30.0,5.0
8.979841232299805,807,0.0,30.0,5.0
8.990867137908936,4095,0.0,30.0,5.0
8.990867137908936,759,0.0,30.0,5.0
9.002705574035645,1291,0.0,30.0,5.0
9.012747287750244,595,0.0,30.0,5.0
9.02320671081543,465,0.0,30.0,5.0
9.03324007987976,432,0.0,30.0,5.0
9.043211936950684,42,0.0,30.0,5.0
9.053213119506836,309,0.0,30.0,5.0
9.063209295272827,0,0.0,30.0,5.0
9.07321286201477,624,0.0,30.0,5.0
9.083212852478027,0,0.0,30.0,5.0
9.093213081359863,619,0.0,30.0,5.0
9.103254318237305,0,0.0,30.0,5.0
9.113216400146484,575,0.0,30.0,5.0
9.129830598831177,0,0.0,30.0,5.0
9.140377521514893,523,0.0,30.0,5.0
9.148406744003296,0,0.0,30.0,5.0
9.155357837677002,432,0.0,30.0,5.0
9.169900894165039,0,0.0,30.0,5.0
9.180480480194092,392,0.0,30.0,5.0
9.18147611618042,0,0.0,30.0,5.0
9.191528558731079,308,0.0,30.0,5.0
9.201525688171387,0,0.0,30.0,5.0
9.21267056465149,369,0.0,30.0,5.0
9.222668647766113,0,0.0,30.0,5.0
9.240068912506104,290,0.0,30.0,5.0
9.241071224212646,0,0.0,30.0,5.0
9.25225567817688,187,0.0,30.0,5.0
9.262320280075073,0,0.0,30.0,5.0
9.272332429885864,153,0.0,30.0,5.0
9.282323360443115,0,0.0,30.0,5.0
9.292320966720581,182,0.0,30.0,5.0
9.30232048034668,0,0.0,30.0,5.0
9.312320947647095,144,0.0,30.0,5.0
9.322320222854614,0,0.0,30.0,5.0
9.340566873550415,161,0.0,30.0,5.0
9.345377922058105,0,0.0,30.0,5.0
9.355631589889526,217,0.0,30.0,5.0
9.368884563446045,0,0.0,30.0,5.0
9.379276514053345,191,0.0,30.0,5.0
9.387331008911133,0,0.0,30.0,5.0
9.397356986999512,171,0.0,30.0,5.0
9.40735912322998,0,0.0,30.0,5.0
9.417359828948975,140,0.0,30.0,5.0
9.427361488342285,0,0.0,30.0,5.0
9.439805269241333,226,0.0,30.0,5.0
9.450009822845459,0,0.0,30.0,5.0
9.451007843017578,174,0.0,30.0,5.0
9.461025476455688,0,0.0,30.0,5.0
9.471030235290527,304,0.0,30.0,5.0
9.481021881103516,0,0.0,30.0,5.0
9.491029262542725,2007,0.0,30.0,5.0
9.50102186203003,0,0.0,30.0,5.0
9.517911911010742,2194,0.0,30.0,5.0
9.528777122497559,0,0.0,30.0,5.0
9.53878140449524,2470,0.0,30.0,5.0
9.550292491912842,0,0.0,30.0,5.0
9.560069561004639,2496,0.0,30.0,5.0
9.568113803863525,0,0.0,30.0,5.0
9.57969331741333,2432,0.0,30.0,5.0
9.590268611907959,0,0.0,30.0,5.0
9.59828495979309,2453,0.0,30.0,5.0
9.602896213531494,2422,0.0,30.0,5.0
9.620044708251953,2320,0.0,30.0,5.0
9.621042490005493,2783,0.0,30.0,5.0
9.631056785583496,2173,0.0,30.0,5.0
9.641058206558228,2513,0.0,30.0,5.0
9.651060342788696,1858,0.0,30.0,5.0
9.661056995391846,2288,0.0,30.0,5.0
9.671053171157837,1656,0.0,30.0,5.0
9.68105697631836,2087,0.0,30.0,5.0
9.691059350967407,1474,0.0,30.0,5.0
9.710274934768677,1893,0.0,30.0,5.0
9.719544410705566,1328,0.0,30.0,5.0
9.729550123214722,2294,0.0,30.0,5.0
9.74062705039978,989,0.0,30.0,5.0
9.74062705039978,2748,0.0,30.0,5.0
9.760031938552856,685,0.0,30.0,5.0
9.77029037475586,2445,0.0,30.0,5.0
9.7806556224823,1709,0.0,30.0,5.0
9.786225080490112,2789,0.0,30.0,5.0
9.79423999786377,2267,0.0,30.0,5.0
9.805996179580688,2608,0.0,30.0,5.0
9.820249319076538,2244,0.0,30.0,5.0
9.83028268814087,2356,0.0,30.0,5.0
9.840283870697021,1942,0.0,30.0,5.0
9.85028338432312,2290,0.0,30.0,5.0
9.860258340835571,1585,0.0,30.0,5.0
9.8709237575531,2259,0.0,30.0,5.0
9.871927976608276,1490,0.0,30.0,5.0
9.881968259811401,2527,0.0,30.0,5.0
9.893293857574463,1379,0.0,30.0,5.0
9.903319835662842,2405,0.0,30.0,5.0
9.913348197937012,1290,0.0,30.0,5.0
9.923320055007935,2987,0.0,30.0,5.0
9.933315992355347,1219,0.0,30.0,5.0
9.945008277893066,3221,0.0,30.0,5.0
9.955904960632324,1143,0.0,30.0,5.0
9.965940952301025,3207,0.0,30.0,5.0
9.980340957641602,1072,0.0,30.0,5.0
9.989999771118164,3183,0.0,30.0,5.0
9.992030620574951,1043,0.0,30.0,5.0
10.005106449127197,3067,0.0,30.0,5.0
10.018748044967651,1021,0.0,30.0,5.0
10.029731512069702,3045,0.0,30.0,5.0
10.037805557250977,939,0.0,30.0,5.0
10.047807455062866,2738,0.0,30.0,5.0
10.057807207107544,894,0.0,30.0,5.0
10.067805528640747,2548,0.0,30.0,5.0
10.077807188034058,849,0.0,30.0,5.0
10.090274333953857,2478,0.0,30.0,5.0
10.100286483764648,806,0.0,30.0,5.0
10.110289812088013,2304,0.0,30.0,5.0
10.120283126831055,768,0.0,30.0,5.0
10.130286455154419,2095,0.0,30.0,5.0
10.14028263092041,762,0.0,30.0,5.0
10.150285959243774,2019,0.0,30.0,5.0
10.16028618812561,708,0.0,30.0,5.0
10.17028260231018,1809,0.0,30.0,5.0
10.180291414260864,652,0.0,30.0,5.0
10.190386772155762,1697,0.0,30.0,5.0
10.199693441390991,595,0.0,30.0,5.0
10.206066846847534,1598,0.0,30.0,5.0
10.22041392326355,549,0.0,30.0,5.0
10.229499101638794,1411,0.0,30.0,5.0
10.236193656921387,530,0.0,30.0,5.0
10.24625301361084,1200,0.0,30.0,5.0
10.256250381469727,492,0.0,30.0,5.0
10.269389390945435,1131,0.0,30.0,5.0
10.27449917793274,457,0.0,30.0,5.0
10.284547567367554,957,0.0,30.0,5.0
10.294569492340088,428,0.0,30.0,5.0
10.30964970588684,1680,0.0,30.0,5.0
10.320665121078491,1042,0.0,30.0,5.0
10.330461740493774,1789,0.0,30.0,5.0
10.340469598770142,1829,0.0,30.0,5.0
10.350468873977661,1742,0.0,30.0,5.0
10.360466480255127,1961,0.0,30.0,5.0
10.370472192764282,1424,0.0,30.0,5.0
10.380476236343384,1633,0.0,30.0,5.0
10.382310628890991,1072,0.0,30.0,5.0
10.400463819503784,1310,0.0,30.0,5.0
10.41001009941101,841,0.0,30.0,5.0
10.420548439025879,999,0.0,30.0,5.0
10.429593086242676,625,0.0,30.0,5.0
10.436073064804077,727,0.0,30.0,5.0
10.449467420578003,438,0.0,30.0,5.0
10.453047275543213,894,0.0,30.0,5.0
10.46562910079956,688,0.0,30.0,5.0
10.475688457489014,1110,0.0,30.0,5.0
10.486780643463135,1008,0.0,30.0,5.0
10.499454736709595,1296,0.0,30.0,5.0
10.510456562042236,1122,0.0,30.0,5.0
10.520456075668335,1441,0.0,30.0,5.0
10.530458450317383,1227,0.0,30.0,5.0
10.540446758270264,1447,0.0,30.0,5.0
10.550452470779419,1062,0.0,30.0,5.0
10.560299634933472,1274,0.0,30.0,5.0
10.56129789352417,934,0.0,30.0,5.0
10.580459833145142,1348,0.0,30.0,5.0
10.590426445007324,1005,0.0,30.0,5.0
10.600444555282593,1296,0.0,30.0,5.0
10.610583782196045,1000,0.0,30.0,5.0
10.619550466537476,1329,0.0,30.0,5.0
10.624143362045288,959,0.0,30.0,5.0
10.637676477432251,1282,0.0,30.0,5.0
10.649460792541504,885,0.0,30.0,5.0
10.657240152359009,1248,0.0,30.0,5.0
10.665281295776367,880,0.0,30.0,5.0
10.680450916290283,1263,0.0,30.0,5.0
10.690561771392822,795,0.0,30.0,5.0
10.699690103530884,1231,0.0,30.0,5.0
10.71069073677063,646,0.0,30.0,5.0
10.72053599357605,1199,0.0,30.0,5.0
10.730649471282959,491,0.0,30.0,5.0
10.740262508392334,1136,0.0,30.0,5.0
10.750529766082764,259,0.0,30.0,5.0
10.759681701660156,1072,0.0,30.0,5.0
10.76965618133545,114,0.0,30.0,5.0
10.780231714248657,1018,0.0,30.0,5.0
10.789704322814941,80,0.0,30.0,5.0
10.800447225570679,959,0.0,30.0,5.0
10.809459924697876,165,0.0,30.0,5.0
10.819422960281372,893,0.0,30.0,5.0
10.830138206481934,187,0.0,30.0,5.0
10.836728811264038,831,0.0,30.0,5.0
10.850513935089111,298,0.0,30.0,5.0
10.8604736328125,784,0.0,30.0,5.0
10.870275259017944,346,0.0,30.0,5.0
10.880526781082153,670,0.0,30.0,5.0
10.890480041503906,373,0.0,30.0,5.0
10.900474309921265,629,0.0,30.0,5.0
10.90951156616211,407,0.0,30.0,5.0
10.92041826248169,575,0.0,30.0,5.0
10.930472612380981,389,0.0,30.0,5.0
10.940499305725098,510,0.0,30.0,5.0
10.949512720108032,379,0.0,30.0,5.0
10.96041750907898,496,0.0,30.0,5.0
10.969515800476074,375,0.0,30.0,5.0
10.970513820648193,450,0.0,30.0,5.0
10.990448236465454,336,0.0,30.0,5.0
11.00050163269043,410,0.0,30.0,5.0
11.010497808456421,346,0.0,30.0,5.0
11.019522666931152,354,0.0,30.0,5.0
11.020522594451904,356,0.0,30.0,5.0
11.038880825042725,313,0.0,30.0,5.0
11.04989504814148,335,0.0,30.0,5.0
11.053951025009155,307,0.0,30.0,5.0
11.068183660507202,331,0.0,30.0,5.0
11.080524682998657,2132,0.0,30.0,5.0
11.089510679244995,1691,0.0,30.0,5.0
11.100412130355835,2076,0.0,30.0,5.0
11.109505653381348,2096,0.0,30.0,5.0
11.120431900024414,1822,0.0,30.0,5.0
11.130510807037354,1936,0.0,30.0,5.0
11.140498161315918,1590,0.0,30.0,5.0
11.149509906768799,1774,0.0,30.0,5.0
11.160450458526611,1328,0.0,30.0,5.0
11.170493841171265,258,0.0,30.0,5.0
11.180505990982056,978,0.0,30.0,5.0
11.18950605392456,247,0.0,30.0,5.0
11.19719910621643,304,0.0,30.0,5.0
11.210495710372925,247,0.0,30.0,5.0
11.219480752944946,39,0.0,30.0,5.0
11.229526996612549,192,0.0,30.0,5.0
11.240407228469849,38,0.0,30.0,5.0
11.250451803207397,1256,0.0,30.0,5.0
11.25460934638977,2423,0.0,30.0,5.0
11.270355463027954,155,0.0,30.0,5.0
11.279363870620728,2289,0.0,30.0,5.0
11.286611795425415,1090,0.0,30.0,5.0
11.29505443572998,2315,0.0,30.0,5.0
11.310361385345459,1520,0.0,30.0,5.0
11.320633888244629,2170,0.0,30.0,5.0
11.33058786392212,361,0.0,30.0,5.0
11.339683532714844,2035,0.0,30.0,5.0
11.349701881408691,339,0.0,30.0,5.0
11.36068058013916,1873,0.0,30.0,5.0
11.370716094970703,272,0.0,30.0,5.0
11.380650281906128,1789,0.0,30.0,5.0
11.389628648757935,202,0.0,30.0,5.0
11.400582551956177,1727,0.0,30.0,5.0
11.409509658813477,1561,0.0,30.0,5.0
11.420466184616089,1584,0.0,30.0,5.0
11.430504560470581,1931,0.0,30.0,5.0
11.440524578094482,1502,0.0,30.0,5.0
11.450445175170898,2036,0.0,30.0,5.0
11.45946717262268,1439,0.0,30.0,5.0
11.470092535018921,2321,0.0,30.0,5.0
11.479127407073975,1367,0.0,30.0,5.0
11.490508317947388,2319,0.0,30.0,5.0
11.500494003295898,1301,0.0,30.0,5.0
11.502580404281616,2188,0.0,30.0,5.0
11.520633459091187,1251,0.0,30.0,5.0
11.530644416809082,1983,0.0,30.0,5.0
11.540600538253784,1183,0.0,30.0,5.0
11.550604581832886,1879,0.0,30.0,5.0
11.559680700302124,1123,0.0,30.0,5.0
11.570667028427124,1773,0.0,30.0,5.0
11.57954478263855,1053,0.0,30.0,5.0
11.590500116348267,1663,0.0,30.0,5.0
11.59954023361206,1023,0.0,30.0,5.0
11.610451698303223,1571,0.0,30.0,5.0
11.619477987289429,958,0.0,30.0,5.0
11.630444765090942,1408,0.0,30.0,5.0
11.640474081039429,909,0.0,30.0,5.0
11.649555206298828,1445,0.0,30.0,5.0
11.650552988052368,896,0.0,30.0,5.0
11.670490026473999,1296,0.0,30.0,5.0
11.679769277572632,848,0.0,30.0,5.0
11.689006090164185,1194,0.0,30.0,5.0
11.699440002441406,835,0.0,30.0,5.0
11.71048879623413,1079,0.0,30.0,5.0
11.719090223312378,766,0.0,30.0,5.0
11.730431079864502,1008,0.0,30.0,5.0
11.740477085113525,730,0.0,30.0,5.0
11.75044322013855,996,0.0,30.0,5.0
11.76047158241272,695,0.0,30.0,5.0
11.770446062088013,929,0.0,30.0,5.0
11.78044605255127,653,0.0,30.0,5.0
11.789558172225952,870,0.0,30.0,5.0
11.80043911933899,610,0.0,30.0,5.0
11.809531927108765,784,0.0,30.0,5.0
11.81968069076538,1535,0.0,30.0,5.0
11.828836917877197,1087,0.0,30.0,5.0
11.83971905708313,1062,0.0,30.0,5.0
11.850439310073853,1200,0.0,30.0,5.0
11.859556436538696,1195,0.0,30.0,5.0
11.870497226715088,1426,0.0,30.0,5.0
11.88060975074768,1551,0.0,30.0,5.0
11.884743928909302,1568,0.0,30.0,5.0
11.896939754486084,1872,0.0,30.0,5.0
11.909579277038574,1482,0.0,30.0,5.0
11.920241117477417,903,0.0,30.0,5.0
11.930493831634521,1487,0.0,30.0,5.0
11.939549207687378,1126,0.0,30.0,5.0
11.950435638427734,1410,0.0,30.0,5.0
11.960450649261475,4095,0.0,30.0,5.0
11.970502376556396,1359,0.0,30.0,5.0
11.979581117630005,4095,0.0,30.0,5.0
11.98157787322998,1195,0.0,30.0,5.0
11.99959111213684,4095,0.0,30.0,5.0
12.010444164276123,1008,0.0,30.0,5.0
12.01954960823059,4095,0.0,30.0,5.0
12.03044056892395,874,0.0,30.0,5.0
12.040527820587158,3623,0.0,30.0,5.0
12.049540042877197,758,0.0,30.0,5.0
12.051941633224487,1975,0.0,30.0,5.0
12.06955361366272,616,0.0,30.0,5.0
12.079540967941284,1467,0.0,30.0,5.0
12.089493989944458,552,0.0,30.0,5.0
12.093631982803345,1212,0.0,30.0,5.0
12.109488248825073,448,0.0,30.0,5.0
12.12004804611206,1179,0.0,30.0,5.0
12.129479169845581,346,0.0,30.0,5.0
12.139514207839966,992,0.0,30.0,5.0
12.149359226226807,416,0.0,30.0,5.0
12.159548282623291,939,0.0,30.0,5.0
12.169498920440674,385,0.0,30.0,5.0
12.179491996765137,807,0.0,30.0,5.0
12.189551830291748,387,0.0,30.0,5.0
12.19951319694519,656,0.0,30.0,5.0
12.209574699401855,427,0.0,30.0,5.0
12.219463586807251,463,0.0,30.0,5.0
12.22957181930542,359,0.0,30.0,5.0
12.239582300186157,341,0.0,30.0,5.0
12.249401092529297,322,0.0,30.0,5.0
12.250398635864258,0,0.0,30.0,5.0
12.269548892974854,258,0.0,30.0,5.0
12.270551919937134,0,0.0,30.0,5.0
12.289492845535278,165,0.0,30.0,5.0
12.290495157241821,0,0.0,30.0,5.0
12.309184789657593,79,0.0,30.0,5.0
12.318192720413208,0,0.0,30.0,5.0
12.334229469299316,1520,0.0,30.0,5.0
12.337570190429688,0,0.0,30.0,5.0
12.348649978637695,2341,0.0,30.0,5.0
12.352689743041992,0,0.0,30.0,5.0
12.370476245880127,2503,0.0,30.0,5.0
12.370476245880127,0,0.0,30.0,5.0
12.390494346618652,2576,0.0,30.0,5.0
12.390494346618652,0,0.0,30.0,5.0
12.41049575805664,2608,0.0,30.0,5.0
12.412331342697144,0,0.0,30.0,5.0
12.430471181869507,2514,0.0,30.0,5.0
12.430471181869507,0,0.0,30.0,5.0
12.45040488243103,2498,0.0,30.0,5.0
12.45918607711792,0,0.0,30.0,5.0
12.470509052276611,2416,0.0,30.0,5.0
12.470509052276611,0,0.0,30.0,5.0
12.490497827529907,2333,0.0,30.0,5.0
12.490497827529907,0,0.0,30.0,5.0
12.510470628738403,2228,0.0,30.0,5.0
12.519601821899414,1699,0.0,30.0,5.0
12.529510259628296,2115,0.0,30.0,5.0
12.54019808769226,2079,0.0,30.0,5.0
12.546296119689941,1125,0.0,30.0,5.0
12.558659553527832,0,0.0,30.0,5.0
12.570241928100586,490,0.0,30.0,5.0
12.578253984451294,0,0.0,30.0,5.0
12.589468002319336,203,0.0,30.0,5.0
12.590471029281616,0,0.0,30.0,5.0
12.610476970672607,2144,0.0,30.0,5.0
12.610476970672607,0,0.0,30.0,5.0
12.630494356155396,2636,0.0,30.0,5.0
12.630494356155396,0,0.0,30.0,5.0
12.65049695968628,2377,0.0,30.0,5.0
12.659550428390503,2407,0.0,30.0,5.0
12.669552326202393,2075,0.0,30.0,5.0
12.680497646331787,2673,0.0,30.0,5.0
12.68955111503601,1857,0.0,30.0,5.0
12.700464248657227,2924,0.0,30.0,5.0
12.709574222564697,1587,0.0,30.0,5.0
12.719570875167847,3086,0.0,30.0,5.0
12.720580577850342,1374,0.0,30.0,5.0
12.739565134048462,3109,0.0,30.0,5.0
12.749780178070068,1218,0.0,30.0,5.0
12.75455927848816,3086,0.0,30.0,5.0
12.769543647766113,1110,0.0,30.0,5.0
12.779695510864258,2854,0.0,30.0,5.0
12.789597749710083,1038,0.0,30.0,5.0
12.800500869750977,2542,0.0,30.0,5.0
12.809513807296753,910,0.0,30.0,5.0
12.820493221282959,2366,0.0,30.0,5.0
12.829522609710693,832,0.0,30.0,5.0
12.840496301651001,2337,0.0,30.0,5.0
12.849722623825073,819,0.0,30.0,5.0
12.859822750091553,2000,0.0,30.0,5.0
12.869584321975708,770,0.0,30.0,5.0
12.879571199417114,1774,0.0,30.0,5.0
12.889547109603882,807,0.0,30.0,5.0
12.899569034576416,1639,0.0,30.0,5.0
12.909463167190552,797,0.0,30.0,5.0
12.919547319412231,1520,0.0,30.0,5.0
12.929486513137817,760,0.0,30.0,5.0
12.93954586982727,1378,0.0,30.0,5.0
12.949572563171387,715,0.0,30.0,5.0
12.96033787727356,1307,0.0,30.0,5.0
12.97017502784729,706,0.0,30.0,5.0
12.979517698287964,1179,0.0,30.0,5.0
12.989546537399292,677,0.0,30.0,5.0
13.000458240509033,1090,0.0,30.0,5.0
13.009573221206665,646,0.0,30.0,5.0
13.020553827285767,1050,0.0,30.0,5.0
13.029574394226074,613,0.0,30.0,5.0
13.03975534439087,962,0.0,30.0,5.0
13.049523830413818,590,0.0,30.0,5.0
13.05954623222351,973,0.0,30.0,5.0
13.069489240646362,543,0.0,30.0,5.0
13.079521894454956,807,0.0,30.0,5.0
13.08948826789856,496,0.0,30.0,5.0
13.099548101425171,752,0.0,30.0,5.0
13.109491109848022,442,0.0,30.0,5.0
13.119575023651123,1638,0.0,30.0,5.0
13.130543231964111,1534,0.0,30.0,5.0
13.139573812484741,1783,0.0,30.0,5.0
13.149568557739258,1968,0.0,30.0,5.0
13.160659790039062,1870,0.0,30.0,5.0
13.169445991516113,2015,0.0,30.0,5.0
13.180491209030151,1807,0.0,30.0,5.0
13.189596176147461,2025,0.0,30.0,5.0
13.20049524307251,1821,0.0,30.0,5.0
13.202978610992432,1985,0.0,30.0,5.0
13.220111608505249,1757,0.0,30.0,5.0
13.23049545288086,1889,0.0,30.0,5.0
13.239569902420044,1664,0.0,30.0,5.0
13.250468015670776,1833,0.0,30.0,5.0
13.25954556465149,1680,0.0,30.0,5.0
13.269545316696167,1739,0.0,30.0,5.0
13.279558181762695,1634,0.0,30.0,5.0
13.289551258087158,1714,0.0,30.0,5.0
13.300543785095215,1618,0.0,30.0,5.0
13.309623003005981,1630,0.0,30.0,5.0
13.320492267608643,1457,0.0,30.0,5.0
13.32956838607788,2039,0.0,30.0,5.0
13.340497493743896,2109,0.0,30.0,5.0
13.349545955657959,2213,0.0,30.0,5.0
13.36010217666626,1953,0.0,30.0,5.0
13.366418600082397,2081,0.0,30.0,5.0
13.380451202392578,1741,0.0,30.0,5.0
13.390172004699707,1959,0.0,30.0,5.0
13.394339084625244,1514,0.0,30.0,5.0
13.404109954833984,1775,0.0,30.0,5.0
13.419529676437378,1290,0.0,30.0,5.0
13.430063009262085,1587,0.0,30.0,5.0
13.43952226638794,1008,0.0,30.0,5.0
13.449570894241333,1482,0.0,30.0,5.0
13.459464311599731,934,0.0,30.0,5.0
13.469607591629028,1321,0.0,30.0,5.0
13.470609188079834,742,0.0,30.0,5.0
13.489521265029907,1207,0.0,30.0,5.0
13.493117332458496,636,0.0,30.0,5.0
13.50952410697937,1072,0.0,30.0,5.0
13.510526418685913,480,0.0,30.0,5.0
13.520546197891235,916,0.0,30.0,5.0
13.53948187828064,336,0.0,30.0,5.0
13.549545526504517,813,0.0,30.0,5.0
13.550546407699585,295,0.0,30.0,5.0
13.569466829299927,720,0.0,30.0,5.0
13.570469617843628,193,0.0,30.0,5.0
13.58946418762207,767,0.0,30.0,5.0
13.599540710449219,229,0.0,30.0,5.0
13.601108312606812,718,0.0,30.0,5.0
13.620102643966675,262,0.0,30.0,5.0
13.629462003707886,673,0.0,30.0,5.0
13.636212825775146,252,0.0,30.0,5.0
13.649466753005981,600,0.0,30.0,5.0
13.658558368682861,395,0.0,30.0,5.0
13.669466972351074,444,0.0,30.0,5.0
13.670469760894775,397,0.0,30.0,5.0
13.68946623802185,334,0.0,30.0,5.0
13.699548244476318,275,0.0,30.0,5.0
13.700549602508545,239,0.0,30.0,5.0
13.719460010528564,250,0.0,30.0,5.0
13.729547023773193,276,0.0,30.0,5.0
13.73054313659668,288,0.0,30.0,5.0
13.74055552482605,250,0.0,30.0,5.0
13.750555038452148,397,0.0,30.0,5.0
13.760555267333984,0,0.0,30.0,5.0
13.770556449890137,389,0.0,30.0,5.0
13.78925347328186,65,0.0,30.0,5.0
13.799294233322144,356,0.0,30.0,5.0
13.800291776657104,218,0.0,30.0,5.0
13.819236755371094,254,0.0,30.0,5.0
13.824766635894775,167,0.0,30.0,5.0
13.836215257644653,327,0.0,30.0,5.0
13.84504771232605,92,0.0,30.0,5.0
13.852193117141724,307,0.0,30.0,5.0
13.869316101074219,0,0.0,30.0,5.0
13.870313882827759,263,0.0,30.0,5.0
13.888951301574707,112,0.0,30.0,5.0
13.89245057106018,196,0.0,30.0,5.0
13.90246057510376,128,0.0,30.0,5.0
13.912461996078491,156,0.0,30.0,5.0
13.929506063461304,2257,0.0,30.0,5.0
13.930508852005005,112,0.0,30.0,5.0
13.949500560760498,2383,0.0,30.0,5.0
13.950505256652832,101,0.0,30.0,5.0
13.969499349594116,2371,0.0,30.0,5.0
13.970506429672241,80,0.0,30.0,5.0
13.989521741867065,2372,0.0,30.0,5.0
13.990524291992188,103,0.0,30.0,5.0
14.009525537490845,2288,0.0,30.0,5.0
14.01052451133728,59,0.0,30.0,5.0
14.025419235229492,503,0.0,30.0,5.0
14.037381172180176,0,0.0,30.0,5.0
14.04651427268982,133,0.0,30.0,5.0
14.053383827209473,0,0.0,30.0,5.0
14.068543195724487,0,0.0,30.0,5.0
14.078641414642334,0,0.0,30.0,5.0
14.090270757675171,1927,0.0,30.0,5.0
14.090270757675171,14,0.0,30.0,5.0
14.109500169754028,2485,0.0,30.0,5.0
14.110498905181885,48,0.0,30.0,5.0
14.129521131515503,2262,0.0,30.0,5.0
14.131821870803833,38,0.0,30.0,5.0
14.149497032165527,1979,0.0,30.0,5.0
14.159627199172974,2210,0.0,30.0,5.0
14.1696035861969,1780,0.0,30.0,5.0
14.179603815078735,2916,0.0,30.0,5.0
14.18949294090271,1522,0.0,30.0,5.0
14.19957709312439,2832,0.0,30.0,5.0
14.209521055221558,1385,0.0,30.0,5.0
14.219584465026855,3193,0.0,30.0,5.0
14.229573488235474,1232,0.0,30.0,5.0
14.23957371711731,3179,0.0,30.0,5.0
14.245574235916138,1068,0.0,30.0,5.0
14.257190704345703,3086,0.0,30.0,5.0
14.26932692527771,992,0.0,30.0,5.0
14.278416872024536,2799,0.0,30.0,5.0
14.286042213439941,878,0.0,30.0,5.0
14.299728155136108,2413,0.0,30.0,5.0
14.309398889541626,864,0.0,30.0,5.0
14.319676399230957,2093,0.0,30.0,5.0
14.320681095123291,864,0.0,30.0,5.0
14.339662551879883,1916,0.0,30.0,5.0
14.34066128730774,878,0.0,30.0,5.0
14.359493255615234,1569,0.0,30.0,5.0
14.360494375228882,908,0.0,30.0,5.0
14.37949514389038,1438,0.0,30.0,5.0
14.388396263122559,881,0.0,30.0,5.0
14.399693012237549,1328,0.0,30.0,5.0
14.40416693687439,822,0.0,30.0,5.0
14.419591188430786,1135,0.0,30.0,5.0
14.422370433807373,822,0.0,30.0,5.0
14.438226222991943,985,0.0,30.0,5.0
14.448599338531494,768,0.0,30.0,5.0
14.458782434463501,886,0.0,30.0,5.0
14.46848177909851,747,0.0,30.0,5.0
14.476488828659058,829,0.0,30.0,5.0
14.485109090805054,684,0.0,30.0,5.0
14.493155002593994,779,0.0,30.0,5.0
14.502837419509888,637,0.0,30.0,5.0
14.514241695404053,773,0.0,30.0,5.0
14.524285078048706,605,0.0,30.0,5.0
14.534284591674805,743,0.0,30.0,5.0
14.544285297393799,560,0.0,30.0,5.0
14.554284811019897,667,0.0,30.0,5.0
14.569533824920654,4095,0.0,30.0,5.0
14.570534944534302,624,0.0,30.0,5.0
14.589629173278809,4095,0.0,30.0,5.0
14.59063172340393,657,0.0,30.0,5.0
14.609496116638184,2752,0.0,30.0,5.0
14.610498428344727,645,0.0,30.0,5.0
14.629522562026978,1143,0.0,30.0,5.0
14.6305251121521,635,0.0,30.0,5.0
14.640547275543213,287,0.0,30.0,5.0
14.650547504425049,609,0.0,30.0,5.0
14.669262886047363,0,0.0,30.0,5.0
14.676991939544678,562,0.0,30.0,5.0
14.688188791275024,0,0.0,30.0,5.0
14.696199178695679,535,0.0,30.0,5.0
14.702043056488037,0,0.0,30.0,5.0
14.719130992889404,535,0.0,30.0,5.0
14.721116542816162,0,0.0,30.0,5.0
14.731132507324219,543,0.0,30.0,5.0
14.741136312484741,783,0.0,30.0,5.0
14.752594232559204,528,0.0,30.0,5.0
14.762605905532837,4095,0.0,30.0,5.0
14.772607326507568,465,0.0,30.0,5.0
14.789509773254395,4095,0.0,30.0,5.0
14.79050588607788,421,0.0,30.0,5.0
14.80051302909851,3104,0.0,30.0,5.0
14.810514450073242,395,0.0,30.0,5.0
14.829448699951172,2749,0.0,30.0,5.0
14.83047604560852,362,0.0,30.0,5.0
14.84940218925476,2319,0.0,30.0,5.0
14.85040020942688,311,0.0,30.0,5.0
14.869662046432495,1745,0.0,30.0,5.0
14.870646238327026,299,0.0,30.0,5.0
14.884343147277832,879,0.0,30.0,5.0
14.894315719604492,224,0.0,30.0,5.0
14.907843351364136,497,0.0,30.0,5.0
14.919061183929443,166,0.0,30.0,5.0
14.92563772201538,250,0.0,30.0,5.0
14.9355309009552,158,0.0,30.0,5.0
14.943542003631592,0,0.0,30.0,5.0
14.951592922210693,112,0.0,30.0,5.0
14.963767051696777,0,0.0,30.0,5.0
14.973783254623413,95,0.0,30.0,5.0
14.983783721923828,0,0.0,30.0,5.0
14.993783235549927,64,0.0,30.0,5.0
15.003783226013184,0,0.0,30.0,5.0
15.013797521591187,0,0.0,30.0,5.0
15.024398565292358,0,0.0,30.0,5.0
15.03951120376587,1396,0.0,30.0,5.0
15.040514707565308,0,0.0,30.0,5.0
15.059451818466187,2352,0.0,30.0,5.0
15.069354772567749,0,0.0,30.0,5.0
15.079431772232056,2374,0.0,30.0,5.0
15.080427408218384,0,0.0,30.0,5.0
15.100120306015015,2409,0.0,30.0,5.0
15.108524322509766,0,0.0,30.0,5.0
15.118873357772827,2422,0.0,30.0,5.0
15.12517762184143,0,0.0,30.0,5.0
15.13948917388916,2453,0.0,30.0,5.0
15.1484956741333,0,0.0,30.0,5.0
15.159600973129272,2363,0.0,30.0,5.0
15.160592794418335,0,0.0,30.0,5.0
15.170601844787598,2389,0.0,30.0,5.0
15.180601835250854,0,0.0,30.0,5.0
15.190601825714111,2268,0.0,30.0,5.0
15.20925235748291,0,0.0,30.0,5.0
15.219255685806274,2149,0.0,30.0,5.0
15.229578256607056,1434,0.0,30.0,5.0
15.239535808563232,2078,0.0,30.0,5.0
15.24053406715393,188,0.0,30.0,5.0
15.25054383277893,2086,0.0,30.0,5.0
15.269525289535522,1903,0.0,30.0,5.0
15.279504537582397,1983,0.0,30.0,5.0
15.289512634277344,2554,0.0,30.0,5.0
15.29950475692749,1871,0.0,30.0,5.0
15.309546947479248,2673,0.0,30.0,5.0
15.31957221031189,1783,0.0,30.0,5.0
15.329490423202515,2643,0.0,30.0,5.0
15.33954405784607,1762,0.0,30.0,5.0
15.348549842834473,2589,0.0,30.0,5.0
15.359981536865234,1623,0.0,30.0,5.0
15.369546890258789,2559,0.0,30.0,5.0
15.379546403884888,1535,0.0,30.0,5.0
15.38954210281372,2463,0.0,30.0,5.0
15.399507761001587,1436,0.0,30.0,5.0
15.409549474716187,2517,0.0,30.0,5.0
15.419544219970703,1322,0.0,30.0,5.0
15.430115222930908,2391,0.0,30.0,5.0
15.436449766159058,1235,0.0,30.0,5.0
15.449545860290527,2261,0.0,30.0,5.0
15.459510803222656,1211,0.0,30.0,5.0
15.469552755355835,2198,0.0,30.0,5.0
15.47953987121582,1173,0.0,30.0,5.0
15.489545106887817,2102,0.0,30.0,5.0
15.490543365478516,1103,0.0,30.0,5.0
15.500552654266357,2065,0.0,30.0,5.0
15.510552406311035,989,0.0,30.0,5.0
15.529214859008789,1969,0.0,30.0,5.0
15.53636622428894,974,0.0,30.0,5.0
15.54950499534607,1783,0.0,30.0,5.0
15.550650358200073,940,0.0,30.0,5.0
15.569332361221313,1743,0.0,30.0,5.0
15.57940936088562,914,0.0,30.0,5.0
15.580409049987793,1449,0.0,30.0,5.0
15.590444326400757,902,0.0,30.0,5.0
15.600420475006104,1217,0.0,30.0,5.0
15.610421180725098,874,0.0,30.0,5.0
15.620419025421143,1521,0.0,30.0,5.0
15.630419254302979,837,0.0,30.0,5.0
15.640419960021973,1358,0.0,30.0,5.0
15.650419235229492,752,0.0,30.0,5.0
15.66041898727417,1360,0.0,30.0,5.0
15.670419216156006,610,0.0,30.0,5.0
15.680420398712158,1360,0.0,30.0,5.0
15.69041919708252,501,0.0,30.0,5.0
15.700421333312988,1189,0.0,30.0,5.0
15.710419178009033,913,0.0,30.0,5.0
15.720418930053711,1307,0.0,30.0,5.0
15.738115549087524,1007,0.0,30.0,5.0
15.748639106750488,1815,0.0,30.0,5.0
15.758756399154663,1078,0.0,30.0,5.0
15.768271207809448,783,0.0,30.0,5.0
15.776286602020264,1146,0.0,30.0,5.0
15.789270639419556,865,0.0,30.0,5.0
15.797296285629272,1463,0.0,30.0,5.0
15.80925178527832,854,0.0,30.0,5.0
15.819257736206055,1701,0.0,30.0,5.0
15.829258441925049,1623,0.0,30.0,5.0
15.839255332946777,1778,0.0,30.0,5.0
15.849257707595825,2011,0.0,30.0,5.0
15.859285593032837,1846,0.0,30.0,5.0
15.869257688522339,2010,0.0,30.0,5.0
15.879255294799805,1712,0.0,30.0,5.0
15.889257907867432,1908,0.0,30.0,5.0
15.899521112442017,1846,0.0,30.0,5.0
15.90052080154419,1814,0.0,30.0,5.0
15.919248580932617,1781,0.0,30.0,5.0
15.9292893409729,1728,0.0,30.0,5.0
15.939390420913696,1712,0.0,30.0,5.0
15.948224306106567,1641,0.0,30.0,5.0
15.957556009292603,561,0.0,30.0,5.0
15.969717025756836,1154,0.0,30.0,5.0
15.97902512550354,434,0.0,30.0,5.0
15.98514175415039,1005,0.0,30.0,5.0
15.99316954612732,190,0.0,30.0,5.0
16.002222537994385,1193,0.0,30.0,5.0
16.012228965759277,382,0.0,30.0,5.0
16.02223038673401,1369,0.0,30.0,5.0
16.03222942352295,401,0.0,30.0,5.0
16.04360818862915,1280,0.0,30.0,5.0
16.05362343788147,338,0.0,30.0,5.0
16.0636248588562,1294,0.0,30.0,5.0
16.073624849319458,301,0.0,30.0,5.0
16.089250326156616,992,0.0,30.0,5.0
16.099281311035156,260,0.0,30.0,5.0
16.109282732009888,1136,0.0,30.0,5.0
16.11927580833435,274,0.0,30.0,5.0
16.12061834335327,1072,0.0,30.0,5.0
16.130620002746582,154,0.0,30.0,5.0
16.14061999320984,787,0.0,30.0,5.0
16.159308910369873,157,0.0,30.0,5.0
16.16856598854065,991,0.0,30.0,5.0
16.177582263946533,202,0.0,30.0,5.0
16.183769941329956,886,0.0,30.0,5.0
16.192729234695435,71,0.0,30.0,5.0
16.202511310577393,652,0.0,30.0,5.0
16.212527990341187,97,0.0,30.0,5.0
16.222527980804443,602,0.0,30.0,5.0
16.232529401779175,80,0.0,30.0,5.0
16.242528438568115,557,0.0,30.0,5.0
16.252528429031372,49,0.0,30.0,5.0
16.263628482818604,541,0.0,30.0,5.0
16.27927875518799,26,0.0,30.0,5.0
16.28929114341736,569,0.0,30.0,5.0
16.29928970336914,0,0.0,30.0,5.0
16.309292316436768,519,0.0,30.0,5.0
16.31929087638855,0,0.0,30.0,5.0
16.32929229736328,465,0.0,30.0,5.0
16.339287519454956,2325,0.0,30.0,5.0
16.349289894104004,453,0.0,30.0,5.0
16.359288215637207,2515,0.0,30.0,5.0
16.36944580078125,1409,0.0,30.0,5.0
16.37950325012207,2466,0.0,30.0,5.0
16.386171102523804,2070,0.0,30.0,5.0
16.39421319961548,1748,0.0,30.0,5.0
16.409377574920654,842,0.0,30.0,5.0
16.41924786567688,425,0.0,30.0,5.0
16.429284811019897,1857,0.0,30.0,5.0
16.43928098678589,207,0.0,30.0,5.0
16.4492769241333,1825,0.0,30.0,5.0
16.459274530410767,2419,0.0,30.0,5.0
16.460788011550903,1813,0.0,30.0,5.0
16.47080087661743,656,0.0,30.0,5.0
16.48208451271057,1558,0.0,30.0,5.0
16.499271869659424,599,0.0,30.0,5.0
16.509284257888794,1433,0.0,30.0,5.0
16.51928400993347,530,0.0,30.0,5.0
16.52952742576599,1299,0.0,30.0,5.0
16.530523538589478,511,0.0,30.0,5.0
16.540563821792603,1215,0.0,30.0,5.0
16.551832914352417,560,0.0,30.0,5.0
16.56196093559265,1190,0.0,30.0,5.0
16.571962356567383,545,0.0,30.0,5.0
16.588838577270508,1220,0.0,30.0,5.0
16.593876123428345,478,0.0,30.0,5.0
16.602689027786255,1494,0.0,30.0,5.0
16.61801266670227,480,0.0,30.0,5.0
16.626009702682495,1512,0.0,30.0,5.0
16.63486099243164,464,0.0,30.0,5.0
16.644872903823853,1553,0.0,30.0,5.0
16.654874324798584,336,0.0,30.0,5.0
16.664873123168945,1533,0.0,30.0,5.0
16.674873113632202,323,0.0,30.0,5.0
16.68487524986267,1523,0.0,30.0,5.0
16.694873094558716,276,0.0,30.0,5.0
16.704874992370605,1593,0.0,30.0,5.0
16.71487331390381,239,0.0,30.0,5.0
16.728427171707153,1386,0.0,30.0,5.0
16.739248275756836,187,0.0,30.0,5.0
16.749260425567627,1283,0.0,30.0,5.0
16.7592613697052,230,0.0,30.0,5.0
16.76925826072693,1317,0.0,30.0,5.0
16.779263496398926,2067,0.0,30.0,5.0
16.78935956954956,1264,0.0,30.0,5.0
16.790355920791626,2201,0.0,30.0,5.0
16.808772563934326,1443,0.0,30.0,5.0
16.819473266601562,2043,0.0,30.0,5.0
16.82952308654785,1435,0.0,30.0,5.0
16.834830284118652,2220,0.0,30.0,5.0
16.84283709526062,1449,0.0,30.0,5.0
16.85237956047058,2263,0.0,30.0,5.0
16.862415552139282,1281,0.0,30.0,5.0
16.878973722457886,2273,0.0,30.0,5.0
16.883522033691406,1190,0.0,30.0,5.0
16.894530057907104,2015,0.0,30.0,5.0
16.90451169013977,1239,0.0,30.0,5.0
16.914512872695923,1649,0.0,30.0,5.0
16.92924666404724,1160,0.0,30.0,5.0
16.939255237579346,627,0.0,30.0,5.0
16.949254989624023,1073,0.0,30.0,5.0
16.959258794784546,720,0.0,30.0,5.0
16.969529628753662,860,0.0,30.0,5.0
16.97654938697815,1833,0.0,30.0,5.0
16.989272594451904,711,0.0,30.0,5.0
16.999285221099854,1805,0.0,30.0,5.0
17.009284019470215,624,0.0,30.0,5.0
17.019376277923584,1795,0.0,30.0,5.0
17.028850078582764,1664,0.0,30.0,5.0
17.0339298248291,1200,0.0,30.0,5.0
17.042644500732422,1885,0.0,30.0,5.0
17.0533287525177,1016,0.0,30.0,5.0
17.068020820617676,1680,0.0,30.0,5.0
17.078033447265625,895,0.0,30.0,5.0
17.088045358657837,1488,0.0,30.0,5.0
17.09803295135498,666,0.0,30.0,5.0
17.108032941818237,1269,0.0,30.0,5.0
17.11803412437439,549,0.0,30.0,5.0
17.12803316116333,958,0.0,30.0,5.0
17.138032913208008,1554,0.0,30.0,5.0
17.14927339553833,1600,0.0,30.0,5.0
17.159286737442017,2079,0.0,30.0,5.0
17.16929578781128,1451,0.0,30.0,5.0
17.179285764694214,1015,0.0,30.0,5.0
17.189284086227417,1227,0.0,30.0,5.0
17.19928479194641,1328,0.0,30.0,5.0
17.209285497665405,976,0.0,30.0,5.0
17.219282150268555,1737,0.0,30.0,5.0
17.229406356811523,1006,0.0,30.0,5.0
17.238821268081665,2025,0.0,30.0,5.0
17.2410306930542,859,0.0,30.0,5.0
17.252840042114258,2227,0.0,30.0,5.0
17.26926898956299,1153,0.0,30.0,5.0
17.277278900146484,2266,0.0,30.0,5.0
17.28927230834961,1308,0.0,30.0,5.0
17.299283027648926,1263,0.0,30.0,5.0
17.309272289276123,1100,0.0,30.0,5.0
17.319287061691284,1162,0.0,30.0,5.0
17.32928442955017,1503,0.0,30.0,5.0
17.33928632736206,942,0.0,30.0,5.0
17.34928059577942,1744,0.0,30.0,5.0
17.35929822921753,1030,0.0,30.0,5.0
17.369284629821777,1808,0.0,30.0,5.0
17.379284381866455,894,0.0,30.0,5.0
17.389284372329712,1743,0.0,30.0,5.0
17.399293422698975,869,0.0,30.0,5.0
17.4093017578125,1702,0.0,30.0,5.0
17.419280767440796,816,0.0,30.0,5.0
17.42928409576416,1585,0.0,30.0,5.0
17.439507961273193,787,0.0,30.0,5.0
17.448612451553345,1555,0.0,30.0,5.0
17.45532989501953,727,0.0,30.0,5.0
17.46943426132202,1578,0.0,30.0,5.0
17.47722816467285,705,0.0,30.0,5.0
17.489410161972046,1428,0.0,30.0,5.0
17.493093013763428,649,0.0,30.0,5.0
17.508410215377808,1376,0.0,30.0,5.0
17.518453121185303,649,0.0,30.0,5.0
17.528457403182983,1323,0.0,30.0,5.0
17.538452863693237,602,0.0,30.0,5.0
17.54875111579895,1296,0.0,30.0,5.0
17.549747705459595,579,0.0,30.0,5.0
17.561828136444092,1291,0.0,30.0,5.0
17.57184886932373,537,0.0,30.0,5.0
17.58778738975525,1194,0.0,30.0,5.0
17.59886074066162,482,0.0,30.0,5.0
17.599857091903687,1264,0.0,30.0,5.0
17.61924695968628,496,0.0,30.0,5.0
17.62928080558777,1322,0.0,30.0,5.0
17.639259338378906,487,0.0,30.0,5.0
17.649404048919678,1357,0.0,30.0,5.0
17.657477140426636,447,0.0,30.0,5.0
17.666785717010498,1423,0.0,30.0,5.0
17.67478609085083,442,0.0,30.0,5.0
17.68847346305847,1390,0.0,30.0,5.0
17.696481704711914,456,0.0,30.0,5.0
17.701043844223022,1109,0.0,30.0,5.0
17.719245672225952,384,0.0,30.0,5.0
17.729280710220337,1102,0.0,30.0,5.0
17.73935627937317,384,0.0,30.0,5.0
17.740354776382446,955,0.0,30.0,5.0
17.750370740890503,393,0.0,30.0,5.0
17.760369539260864,930,0.0,30.0,5.0
17.770391702651978,419,0.0,30.0,5.0
17.7803852558136,1365,0.0,30.0,5.0
17.791510105133057,2155,0.0,30.0,5.0
17.801511526107788,1587,0.0,30.0,5.0
17.811511754989624,2064,0.0,30.0,5.0
17.821512937545776,1568,0.0,30.0,5.0
17.831511735916138,1815,0.0,30.0,5.0
17.849503755569458,1178,0.0,30.0,5.0
17.854119777679443,1606,0.0,30.0,5.0
17.86923313140869,953,0.0,30.0,5.0
17.878233194351196,1303,0.0,30.0,5.0
17.884483575820923,1795,0.0,30.0,5.0
17.894498586654663,729,0.0,30.0,5.0
17.904499769210815,1534,0.0,30.0,5.0
17.914498567581177,2046,0.0,30.0,5.0
17.92450261116028,1299,0.0,30.0,5.0
17.934515476226807,2022,0.0,30.0,5.0
17.944499969482422,959,0.0,30.0,5.0
17.954498767852783,1785,0.0,30.0,5.0
17.969268083572388,928,0.0,30.0,5.0
17.979280948638916,1985,0.0,30.0,5.0
17.989290237426758,899,0.0,30.0,5.0
17.999462842941284,1794,0.0,30.0,5.0
18.00649619102478,689,0.0,30.0,5.0
18.017802715301514,1326,0.0,30.0,5.0
18.02781844139099,551,0.0,30.0,5.0
18.037819147109985,1205,0.0,30.0,5.0
18.047818422317505,2011,0.0,30.0,5.0
18.059186220169067,1120,0.0,30.0,5.0
18.069275379180908,1221,0.0,30.0,5.0
18.079530000686646,898,0.0,30.0,5.0
18.085459232330322,1840,0.0,30.0,5.0
18.093470573425293,1049,0.0,30.0,5.0
18.101090908050537,462,0.0,30.0,5.0
18.111135721206665,1087,0.0,30.0,5.0
18.121111392974854,1834,0.0,30.0,5.0
18.13111138343811,977,0.0,30.0,5.0
18.141112327575684,1975,0.0,30.0,5.0
18.151111125946045,944,0.0,30.0,5.0
18.161112546920776,1994,0.0,30.0,5.0
18.171111583709717,907,0.0,30.0,5.0
18.181113481521606,2016,0.0,30.0,5.0
18.191111087799072,844,0.0,30.0,5.0
18.209272623062134,2064,0.0,30.0,5.0
18.21928358078003,839,0.0,30.0,5.0
18.225264310836792,1209,0.0,30.0,5.0
18.236247301101685,720,0.0,30.0,5.0
18.24927043914795,916,0.0,30.0,5.0
18.259281635284424,1983,0.0,30.0,5.0
18.269349336624146,944,0.0,30.0,5.0
18.278841018676758,1972,0.0,30.0,5.0
18.28569769859314,960,0.0,30.0,5.0
18.293705224990845,1926,0.0,30.0,5.0
18.30906367301941,858,0.0,30.0,5.0
18.318786144256592,1914,0.0,30.0,5.0
18.328805923461914,832,0.0,30.0,5.0
18.339011430740356,1884,0.0,30.0,5.0
18.340009927749634,848,0.0,30.0,5.0
18.350019216537476,1733,0.0,30.0,5.0
18.36001944541931,788,0.0,30.0,5.0
18.37001919746399,1735,0.0,30.0,5.0
18.381149530410767,799,0.0,30.0,5.0
18.392060041427612,1730,0.0,30.0,5.0
18.402060985565186,819,0.0,30.0,5.0
18.412060022354126,1616,0.0,30.0,5.0
18.422091722488403,430,0.0,30.0,5.0
18.432079315185547,1378,0.0,30.0,5.0
18.442061185836792,481,0.0,30.0,5.0
18.452083826065063,1349,0.0,30.0,5.0
18.462061405181885,450,0.0,30.0,5.0
18.475083351135254,1307,0.0,30.0,5.0
18.4873468875885,425,0.0,30.0,5.0
18.495375394821167,1055,0.0,30.0,5.0
18.50217056274414,434,0.0,30.0,5.0
18.518672227859497,1189,0.0,30.0,5.0
18.519675493240356,356,0.0,30.0,5.0
18.53173065185547,987,0.0,30.0,5.0
18.541747331619263,160,0.0,30.0,5.0
18.551748514175415,734,0.0,30.0,5.0
18.563020706176758,429,0.0,30.0,5.0
18.574524402618408,1178,0.0,30.0,5.0
18.584540128707886,526,0.0,30.0,5.0
18.594562768936157,1260,0.0,30.0,5.0
18.6045401096344,560,0.0,30.0,5.0
18.614540338516235,1826,0.0,30.0,5.0
18.629270315170288,1250,0.0,30.0,5.0
18.639283180236816,1823,0.0,30.0,5.0
18.649282217025757,1186,0.0,30.0,5.0
18.659282684326172,1118,0.0,30.0,5.0
18.669284343719482,974,0.0,30.0,5.0
18.679474592208862,285,0.0,30.0,5.0
18.68415141105652,0,0.0,30.0,5.0
18.69881772994995,506,0.0,30.0,5.0
18.7087504863739,0,0.0,30.0,5.0
18.719046115875244,271,0.0,30.0,5.0
18.72708535194397,2357,0.0,30.0,5.0
18.733627319335938,768,0.0,30.0,5.0
18.742512464523315,3291,0.0,30.0,5.0
18.758558750152588,768,0.0,30.0,5.0
18.76855969429016,3056,0.0,30.0,5.0
18.77338933944702,699,0.0,30.0,5.0
18.78339958190918,1759,0.0,30.0,5.0
18.79927110671997,681,0.0,30.0,5.0
18.80928349494934,1441,0.0,30.0,5.0
18.819283723831177,599,0.0,30.0,5.0
18.829415559768677,1475,0.0,30.0,5.0
18.83041214942932,576,0.0,30.0,5.0
18.840453386306763,1414,0.0,30.0,5.0
18.850422143936157,564,0.0,30.0,5.0
18.860421895980835,1435,0.0,30.0,5.0
18.870421648025513,562,0.0,30.0,5.0
18.88042187690735,1360,0.0,30.0,5.0
18.899520874023438,539,0.0,30.0,5.0
18.904112577438354,1267,0.0,30.0,5.0
18.919089555740356,496,0.0,30.0,5.0
18.927181482315063,1166,0.0,30.0,5.0
18.93433976173401,468,0.0,30.0,5.0
18.9443519115448,1110,0.0,30.0,5.0
18.954383611679077,432,0.0,30.0,5.0
18.96927285194397,1043,0.0,30.0,5.0
18.97928547859192,416,0.0,30.0,5.0
18.98928475379944,1053,0.0,30.0,5.0
18.999284982681274,410,0.0,30.0,5.0
19.00928521156311,1129,0.0,30.0,5.0
19.01949977874756,377,0.0,30.0,5.0
19.026468753814697,1286,0.0,30.0,5.0
19.038803339004517,379,0.0,30.0,5.0
19.049038648605347,1385,0.0,30.0,5.0
19.05288076400757,369,0.0,30.0,5.0
19.062892198562622,1340,0.0,30.0,5.0
19.07402729988098,337,0.0,30.0,5.0
19.084858417510986,1390,0.0,30.0,5.0
19.094858169555664,320,0.0,30.0,5.0
19.104859352111816,1314,0.0,30.0,5.0
19.117238759994507,311,0.0,30.0,5.0
19.12731122970581,1417,0.0,30.0,5.0
19.135715007781982,274,0.0,30.0,5.0
19.140926361083984,1470,0.0,30.0,5.0
19.151803493499756,250,0.0,30.0,5.0
19.16766881942749,1290,0.0,30.0,5.0
19.179244995117188,218,0.0,30.0,5.0
19.18950891494751,873,0.0,30.0,5.0
19.198209285736084,217,0.0,30.0,5.0
19.20821785926819,833,0.0,30.0,5.0
19.218230485916138,196,0.0,30.0,5.0
19.228217840194702,815,0.0,30.0,5.0
19.23821759223938,176,0.0,30.0,5.0
19.249246835708618,720,0.0,30.0,5.0
19.259255170822144,133,0.0,30.0,5.0
19.269258737564087,1277,0.0,30.0,5.0
19.279372930526733,2224,0.0,30.0,5.0
19.281367301940918,1401,0.0,30.0,5.0
19.291383981704712,2338,0.0,30.0,5.0
19.30259609222412,1822,0.0,30.0,5.0
19.312739610671997,2269,0.0,30.0,5.0
19.32534646987915,1551,0.0,30.0,5.0
19.337931394577026,2013,0.0,30.0,5.0
19.347940921783447,1445,0.0,30.0,5.0
19.35235857963562,901,0.0,30.0,5.0
19.366740465164185,1627,0.0,30.0,5.0
19.3791446685791,941,0.0,30.0,5.0
19.387243032455444,1535,0.0,30.0,5.0
19.399245262145996,458,0.0,30.0,5.0
19.409257411956787,1314,0.0,30.0,5.0
19.419256925582886,299,0.0,30.0,5.0
19.429253578186035,1331,0.0,30.0,5.0
19.439260721206665,196,0.0,30.0,5.0
19.449257373809814,1600,0.0,30.0,5.0
19.45925736427307,205,0.0,30.0,5.0
19.46925377845764,1475,0.0,30.0,5.0
19.479493379592896,218,0.0,30.0,5.0
19.481489419937134,1438,0.0,30.0,5.0
19.491528749465942,187,0.0,30.0,5.0
19.501497268676758,1451,0.0,30.0,5.0
19.511595010757446,112,0.0,30.0,5.0
19.522581338882446,1519,0.0,30.0,5.0
19.538362741470337,1728,0.0,30.0,5.0
19.54878067970276,1073,0.0,30.0,5.0
19.55231547355652,714,0.0,30.0,5.0
19.567524194717407,1533,0.0,30.0,5.0
19.577571630477905,353,0.0,30.0,5.0
19.585262537002563,1165,0.0,30.0,5.0
19.595280170440674,105,0.0,30.0,5.0
19.60527777671814,1447,0.0,30.0,5.0
19.616463899612427,2217,0.0,30.0,5.0
19.626478672027588,1481,0.0,30.0,5.0
19.636478900909424,1630,0.0,30.0,5.0
19.64647889137268,1711,0.0,30.0,5.0
19.656478881835938,2357,0.0,30.0,5.0
19.66649317741394,1679,0.0,30.0,5.0
19.67647886276245,2458,0.0,30.0,5.0
19.68924641609192,1088,0.0,30.0,5.0
19.699254989624023,2438,0.0,30.0,5.0
19.709258794784546,1210,0.0,30.0,5.0
19.719280004501343,2445,0.0,30.0,5.0
19.72925853729248,1009,0.0,30.0,5.0
19.739258527755737,2219,0.0,30.0,5.0
19.749393939971924,944,0.0,30.0,5.0
19.759140729904175,1478,0.0,30.0,5.0
19.768640756607056,1104,0.0,30.0,5.0
19.776649236679077,1166,0.0,30.0,5.0
19.783103466033936,1088,0.0,30.0,5.0
19.79207682609558,845,0.0,30.0,5.0
19.801860094070435,1216,0.0,30.0,5.0
19.811875820159912,883,0.0,30.0,5.0
19.82187557220459,1457,0.0,30.0,5.0
19.831876039505005,651,0.0,30.0,5.0
19.841875553131104,1297,0.0,30.0,5.0
19.85188937187195,1216,0.0,30.0,5.0
19.861876010894775,1439,0.0,30.0,5.0
19.871875524520874,1131,0.0,30.0,5.0
19.88187575340271,1774,0.0,30.0,5.0
19.891875743865967,812,0.0,30.0,5.0
19.901875734329224,1163,0.0,30.0,5.0
19.911874294281006,1847,0.0,30.0,5.0
19.921875715255737,1306,0.0,30.0,5.0
19.931875705718994,1617,0.0,30.0,5.0
19.941887617111206,913,0.0,30.0,5.0
19.951875686645508,1670,0.0,30.0,5.0
19.968894720077515,1200,0.0,30.0,5.0
19.975684881210327,1322,0.0,30.0,5.0
19.984171628952026,1150,0.0,30.0,5.0
19.992185354232788,1275,0.0,30.0,5.0
20.009180068969727,1371,0.0,30.0,5.0
20.017209768295288,1104,0.0,30.0,5.0
20.02818775177002,1294,0.0,30.0,5.0
20.038187742233276,901,0.0,30.0,5.0
20.049355268478394,1136,0.0,30.0,5.0
20.055630683898926,741,0.0,30.0,5.0
20.06566095352173,964,0.0,30.0,5.0
20.075639009475708,593,0.0,30.0,5.0
20.089246034622192,1744,0.0,30.0,5.0
20.09925889968872,2052,0.0,30.0,5.0
20.10925841331482,1899,0.0,30.0,5.0
20.11953115463257,942,0.0,30.0,5.0
20.12053680419922,1651,0.0,30.0,5.0
20.13055419921875,746,0.0,30.0,5.0
20.14055347442627,1489,0.0,30.0,5.0
20.158693313598633,624,0.0,30.0,5.0
20.160688877105713,1104,0.0,30.0,5.0
20.17086386680603,427,0.0,30.0,5.0
20.183489322662354,1183,0.0,30.0,5.0
20.197868824005127,338,0.0,30.0,5.0
20.202191591262817,1222,0.0,30.0,5.0
20.21737265586853,2288,0.0,30.0,5.0
20.22538137435913,1748,0.0,30.0,5.0
20.235079288482666,1340,0.0,30.0,5.0
20.245094776153564,1715,0.0,30.0,5.0
20.255102396011353,637,0.0,30.0,5.0
20.267194509506226,1477,0.0,30.0,5.0
20.277201175689697,609,0.0,30.0,5.0
20.288291454315186,1355,0.0,30.0,5.0
20.2982976436615,506,0.0,30.0,5.0
20.309272050857544,1201,0.0,30.0,5.0
20.319280862808228,381,0.0,30.0,5.0
20.329280376434326,1578,0.0,30.0,5.0
20.339290618896484,272,0.0,30.0,5.0
20.34929060935974,1517,0.0,30.0,5.0
20.35928440093994,2278,0.0,30.0,5.0
20.369284629821777,1377,0.0,30.0,5.0
20.379284620285034,2327,0.0,30.0,5.0
20.389480590820312,1361,0.0,30.0,5.0
20.392531394958496,986,0.0,30.0,5.0
20.407327890396118,1723,0.0,30.0,5.0
20.41922903060913,675,0.0,30.0,5.0
20.42724061012268,1029,0.0,30.0,5.0
20.43425226211548,595,0.0,30.0,5.0
20.442264318466187,1153,0.0,30.0,5.0
20.451518297195435,2167,0.0,30.0,5.0
20.461525201797485,1425,0.0,30.0,5.0
20.471522331237793,752,0.0,30.0,5.0
20.48152232170105,1085,0.0,30.0,5.0
20.491523504257202,591,0.0,30.0,5.0
20.501522302627563,1683,0.0,30.0,5.0
20.5115327835083,629,0.0,30.0,5.0
20.521523475646973,1396,0.0,30.0,5.0
20.531522274017334,542,0.0,30.0,5.0
20.541542530059814,1360,0.0,30.0,5.0
20.552796125411987,571,0.0,30.0,5.0
20.568482160568237,1113,0.0,30.0,5.0
20.5717191696167,370,0.0,30.0,5.0
20.586506605148315,875,0.0,30.0,5.0
20.599152088165283,254,0.0,30.0,5.0
20.60615849494934,1072,0.0,30.0,5.0
20.61418867111206,2218,0.0,30.0,5.0
20.62760305404663,1061,0.0,30.0,5.0
20.639283895492554,384,0.0,30.0,5.0
20.64988136291504,1454,0.0,30.0,5.0
20.659059286117554,207,0.0,30.0,5.0
20.66804552078247,1022,0.0,30.0,5.0
20.678053617477417,123,0.0,30.0,5.0
20.689459085464478,1279,0.0,30.0,5.0
20.699466943740845,93,0.0,30.0,5.0
20.7094669342041,1082,0.0,30.0,5.0
20.719483852386475,2250,0.0,30.0,5.0
20.729467153549194,1786,0.0,30.0,5.0
20.739465951919556,2366,0.0,30.0,5.0
20.749465942382812,1667,0.0,30.0,5.0
20.759466648101807,2094,0.0,30.0,5.0
20.769466400146484,1403,0.0,30.0,5.0
20.779271602630615,976,0.0,30.0,5.0
20.789283514022827,1201,0.0,30.0,5.0
20.799283504486084,485,0.0,30.0,5.0
20.80945062637329,976,0.0,30.0,5.0
20.819201231002808,1107,0.0,30.0,5.0
20.823997735977173,1770,0.0,30.0,5.0
20.835309505462646,511,0.0,30.0,5.0
20.84984016418457,1701,0.0,30.0,5.0
20.85926127433777,2141,0.0,30.0,5.0
20.86822485923767,1300,0.0,30.0,5.0
20.878225803375244,2229,0.0,30.0,5.0
20.88822603225708,1280,0.0,30.0,5.0
20.898227214813232,1666,0.0,30.0,5.0
20.90822696685791,1239,0.0,30.0,5.0
20.91822576522827,2185,0.0,30.0,5.0
20.929271697998047,978,0.0,30.0,5.0
20.939284086227417,579,0.0,30.0,5.0
20.94924521446228,991,0.0,30.0,5.0
20.959253787994385,318,0.0,30.0,5.0
20.969257354736328,1759,0.0,30.0,5.0
20.97934341430664,526,0.0,30.0,5.0
20.980340003967285,1680,0.0,30.0,5.0
20.990349769592285,1481,0.0,30.0,5.0
21.000349521636963,1266,0.0,30.0,5.0
21.0103497505188,2250,0.0,30.0,5.0
21.022770881652832,1259,0.0,30.0,5.0
21.03680729866028,2256,0.0,30.0,5.0
21.049620389938354,1249,0.0,30.0,5.0
21.052223920822144,2032,0.0,30.0,5.0
21.067205905914307,1058,0.0,30.0,5.0
21.078906297683716,780,0.0,30.0,5.0
21.08552646636963,1697,0.0,30.0,5.0
21.099440813064575,638,0.0,30.0,5.0
21.100436449050903,1634,0.0,30.0,5.0
21.11197304725647,567,0.0,30.0,5.0
21.122072458267212,1621,0.0,30.0,5.0
21.133400440216064,582,0.0,30.0,5.0
21.143415451049805,1113,0.0,30.0,5.0
21.153419017791748,2266,0.0,30.0,5.0
21.163422346115112,912,0.0,30.0,5.0
21.173415660858154,2288,0.0,30.0,5.0
21.183416604995728,907,0.0,30.0,5.0
21.193416595458984,2271,0.0,30.0,5.0
21.20341658592224,1314,0.0,30.0,5.0
21.213415384292603,373,0.0,30.0,5.0
21.22341537475586,1471,0.0,30.0,5.0
21.23602294921875,356,0.0,30.0,5.0
21.249462127685547,1309,0.0,30.0,5.0
21.251781463623047,319,0.0,30.0,5.0
21.26715612411499,1686,0.0,30.0,5.0
21.27516460418701,1111,0.0,30.0,5.0
21.284908294677734,1717,0.0,30.0,5.0
21.29492473602295,306,0.0,30.0,5.0
21.309271574020386,1349,0.0,30.0,5.0
21.319284200668335,313,0.0,30.0,5.0
21.32938551902771,1584,0.0,30.0,5.0
21.330382585525513,338,0.0,30.0,5.0
21.340391635894775,1297,0.0,30.0,5.0
21.359270572662354,208,0.0,30.0,5.0
21.369279384613037,1379,0.0,30.0,5.0
21.379281997680664,1707,0.0,30.0,5.0
21.389282941818237,1114,0.0,30.0,5.0
21.399282693862915,1932,0.0,30.0,5.0
21.409282684326172,833,0.0,30.0,5.0
21.419270992279053,1856,0.0,30.0,5.0
21.429283618927002,1360,0.0,30.0,5.0
21.43928337097168,962,0.0,30.0,5.0
21.44942593574524,1926,0.0,30.0,5.0
21.459046363830566,947,0.0,30.0,5.0
21.469253063201904,1661,0.0,30.0,5.0
21.477262496948242,816,0.0,30.0,5.0
21.483769178390503,1416,0.0,30.0,5.0
21.49956250190735,615,0.0,30.0,5.0
21.503822326660156,1185,0.0,30.0,5.0
21.513837099075317,397,0.0,30.0,5.0
21.525943994522095,1264,0.0,30.0,5.0
21.53927254676819,282,0.0,30.0,5.0
21.54928469657898,1578,0.0,30.0,5.0
21.559284925460815,2160,0.0,30.0,5.0
21.569283485412598,1499,0.0,30.0,5.0
21.57058334350586,2250,0.0,30.0,5.0
21.580591201782227,1556,0.0,30.0,5.0
21.599091291427612,831,0.0,30.0,5.0
21.600091695785522,1047,0.0,30.0,5.0
21.611505270004272,545,0.0,30.0,5.0
21.62305498123169,1106,0.0,30.0,5.0
21.633091688156128,368,0.0,30.0,5.0
21.643197059631348,1586,0.0,30.0,5.0
21.65420651435852,306,0.0,30.0,5.0
21.666747331619263,1674,0.0,30.0,5.0
21.67896318435669,2029,0.0,30.0,5.0
21.684110164642334,1290,0.0,30.0,5.0
21.69942808151245,1360,0.0,30.0,5.0
21.709450721740723,1317,0.0,30.0,5.0
21.717216968536377,1110,0.0,30.0,5.0
21.727951765060425,1245,0.0,30.0,5.0
21.738894939422607,598,0.0,30.0,5.0
21.749289989471436,944,0.0,30.0,5.0
21.75028705596924,593,0.0,30.0,5.0
21.7602961063385,1721,0.0,30.0,5.0
21.77029538154602,403,0.0,30.0,5.0
21.780296087265015,1741,0.0,30.0,5.0
21.790295839309692,2240,0.0,30.0,5.0
21.80029606819153,1314,0.0,30.0,5.0
21.810296058654785,2256,0.0,30.0,5.0
21.820295810699463,1209,0.0,30.0,5.0
21.83029580116272,1175,0.0,30.0,5.0
21.840295791625977,1136,0.0,30.0,5.0
21.850295782089233,725,0.0,30.0,5.0
21.860296964645386,992,0.0,30.0,5.0
21.870295763015747,393,0.0,30.0,5.0
21.88283944129944,1767,0.0,30.0,5.0
21.89886975288391,425,0.0,30.0,5.0
21.902851819992065,1296,0.0,30.0,5.0
21.91702651977539,401,0.0,30.0,5.0
21.925034761428833,1413,0.0,30.0,5.0
21.934746742248535,1814,0.0,30.0,5.0
21.94477868080139,1168,0.0,30.0,5.0
21.95661449432373,695,0.0,30.0,5.0
21.966875553131104,1083,0.0,30.0,5.0
21.97781753540039,1234,0.0,30.0,5.0
21.987818002700806,1060,0.0,30.0,5.0
21.9978187084198,1535,0.0,30.0,5.0
22.007818460464478,673,0.0,30.0,5.0
22.019245624542236,4095,0.0,30.0,5.0
22.029258012771606,931,0.0,30.0,5.0
22.039266347885132,4095,0.0,30.0,5.0
22.049344778060913,1018,0.0,30.0,5.0
22.050896883010864,4095,0.0,30.0,5.0
22.061837434768677,1133,0.0,30.0,5.0
22.07219624519348,4095,0.0,30.0,5.0
22.086615800857544,1105,0.0,30.0,5.0
22.099443912506104,4095,0.0,30.0,5.0
22.102420568466187,1021,0.0,30.0,5.0
22.11738419532776,4095,0.0,30.0,5.0
22.128007888793945,1009,0.0,30.0,5.0
22.13474941253662,1919,0.0,30.0,5.0
22.14594030380249,1081,0.0,30.0,5.0
22.15595269203186,1787,0.0,30.0,5.0
22.166017770767212,990,0.0,30.0,5.0
22.17699909210205,2330,0.0,30.0,5.0
22.18699812889099,1200,0.0,30.0,5.0
22.199244260787964,968,0.0,30.0,5.0
22.209256649017334,1063,0.0,30.0,5.0
22.219252824783325,301,0.0,30.0,5.0
22.22925639152527,1392,0.0,30.0,5.0
22.23953676223755,436,0.0,30.0,5.0
22.24053430557251,1397,0.0,30.0,5.0
22.250540733337402,439,0.0,30.0,5.0
22.260541915893555,1159,0.0,30.0,5.0
22.270541667938232,453,0.0,30.0,5.0
22.280571937561035,933,0.0,30.0,5.0
22.29961895942688,601,0.0,30.0,5.0
22.303138256072998,823,0.0,30.0,5.0
22.3243191242218,591,0.0,30.0,5.0
22.3290011882782,608,0.0,30.0,5.0
22.33280897140503,0,0.0,30.0,5.0
22.349451303482056,468,0.0,30.0,5.0
22.351316928863525,0,0.0,30.0,5.0
22.36928415298462,567,0.0,30.0,5.0
22.37929058074951,0,0.0,30.0,5.0
22.38931703567505,688,0.0,30.0,5.0
22.399317264556885,0,0.0,30.0,5.0
22.409313440322876,598,0.0,30.0,5.0
22.419317483901978,199,0.0,30.0,5.0
22.429333686828613,480,0.0,30.0,5.0
22.43931746482849,329,0.0,30.0,5.0
22.449316024780273,419,0.0,30.0,5.0
22.459316968917847,400,0.0,30.0,5.0
22.469313621520996,305,0.0,30.0,5.0
22.47931742668152,438,0.0,30.0,5.0
22.489318132400513,161,0.0,30.0,5.0
22.499316215515137,321,0.0,30.0,5.0
22.509467124938965,115,0.0,30.0,5.0
22.518771171569824,80,0.0,30.0,5.0
22.525744438171387,208,0.0,30.0,5.0
22.533656358718872,103,0.0,30.0,5.0
22.549392461776733,434,0.0,30.0,5.0
22.55841827392578,159,0.0,30.0,5.0
22.566463470458984,1853,0.0,30.0,5.0
22.579242944717407,0,0.0,30.0,5.0
22.58927845954895,1963,0.0,30.0,5.0
22.59925389289856,0,0.0,30.0,5.0
22.602986574172974,1947,0.0,30.0,5.0
22.6125385761261,0,0.0,30.0,5.0
22.62816023826599,2029,0.0,30.0,5.0
22.631380319595337,0,0.0,30.0,5.0
22.642772912979126,1983,0.0,30.0,5.0
22.65509533882141,0,0.0,30.0,5.0
22.665136575698853,1977,0.0,30.0,5.0
22.675124168395996,0,0.0,30.0,5.0
22.686431407928467,1969,0.0,30.0,5.0
22.69644784927368,0,0.0,30.0,5.0
22.70644783973694,2011,0.0,30.0,5.0
22.71895480155945,0,0.0,30.0,5.0
22.72647500038147,1963,0.0,30.0,5.0
22.73594355583191,1879,0.0,30.0,5.0
22.749241828918457,1822,0.0,30.0,5.0
22.758254766464233,2987,0.0,30.0,5.0
22.766981840133667,1591,0.0,30.0,5.0
22.776996612548828,3019,0.0,30.0,5.0
22.789257049560547,1601,0.0,30.0,5.0
22.79916214942932,2898,0.0,30.0,5.0
22.800159215927124,1424,0.0,30.0,5.0
22.812455654144287,2864,0.0,30.0,5.0
22.82247233390808,1454,0.0,30.0,5.0
22.839245796203613,2509,0.0,30.0,5.0
22.849257707595825,1412,0.0,30.0,5.0
22.859257698059082,781,0.0,30.0,5.0
22.86087679862976,1085,0.0,30.0,5.0
22.870893001556396,0,0.0,30.0,5.0
22.880892753601074,838,0.0,30.0,5.0
22.89089298248291,0,0.0,30.0,5.0
22.900896787643433,1871,0.0,30.0,5.0
22.910892963409424,801,0.0,30.0,5.0
22.92877960205078,2109,0.0,30.0,5.0
22.934886693954468,2815,0.0,30.0,5.0
22.94918179512024,1723,0.0,30.0,5.0
22.95927858352661,2688,0.0,30.0,5.0
22.969244718551636,1481,0.0,30.0,5.0
22.97925329208374,2639,0.0,30.0,5.0
22.982367515563965,1337,0.0,30.0,5.0
22.99930715560913,2675,0.0,30.0,5.0
23.000305652618408,1146,0.0,30.0,5.0
23.01031470298767,3363,0.0,30.0,5.0
23.02031445503235,1047,0.0,30.0,5.0
23.030314683914185,3165,0.0,30.0,5.0
23.040329933166504,961,0.0,30.0,5.0
23.050323963165283,3061,0.0,30.0,5.0
23.060314655303955,930,0.0,30.0,5.0
23.070314645767212,2270,0.0,30.0,5.0
23.08063769340515,974,0.0,30.0,5.0
23.0928156375885,1838,0.0,30.0,5.0
23.102832794189453,939,0.0,30.0,5.0
23.11283230781555,1383,0.0,30.0,5.0
23.122848749160767,867,0.0,30.0,5.0
23.13887095451355,1085,0.0,30.0,5.0
23.149235486984253,766,0.0,30.0,5.0
23.153225898742676,1040,0.0,30.0,5.0
23.165772914886475,741,0.0,30.0,5.0
23.174774408340454,791,0.0,30.0,5.0
23.184561491012573,619,0.0,30.0,5.0
23.199284315109253,582,0.0,30.0,5.0
23.200288772583008,499,0.0,30.0,5.0
23.219245433807373,404,0.0,30.0,5.0
23.229257822036743,341,0.0,30.0,5.0
23.23925757408142,2014,0.0,30.0,5.0
23.249582290649414,337,0.0,30.0,5.0
23.250581979751587,32,0.0,30.0,5.0
23.26059579849243,289,0.0,30.0,5.0
23.270617723464966,176,0.0,30.0,5.0
23.28059697151184,272,0.0,30.0,5.0
23.290595769882202,2529,0.0,30.0,5.0
23.300596952438354,253,0.0,30.0,5.0
23.310600757598877,2740,0.0,30.0,5.0
23.320595741271973,133,0.0,30.0,5.0
23.33059549331665,2810,0.0,30.0,5.0
23.340595722198486,112,0.0,30.0,5.0
23.358731508255005,2788,0.0,30.0,5.0
23.366798877716064,69,0.0,30.0,5.0
23.374814987182617,2703,0.0,30.0,5.0
23.383411407470703,0,0.0,30.0,5.0
23.399459838867188,2544,0.0,30.0,5.0
23.400457859039307,0,0.0,30.0,5.0
23.41047501564026,2453,0.0,30.0,5.0
23.42047381401062,9,0.0,30.0,5.0
23.430473804473877,2329,0.0,30.0,5.0
23.440473794937134,123,0.0,30.0,5.0
23.45047402381897,2257,0.0,30.0,5.0
23.460474252700806,345,0.0,30.0,5.0
23.470484972000122,2160,0.0,30.0,5.0
23.48047375679016,480,0.0,30.0,5.0
23.490474224090576,2020,0.0,30.0,5.0
23.500473737716675,631,0.0,30.0,5.0
23.51047396659851,2011,0.0,30.0,5.0
23.52047371864319,859,0.0,30.0,5.0
23.53047490119934,1907,0.0,30.0,5.0
23.549269914627075,974,0.0,30.0,5.0
23.559292554855347,1872,0.0,30.0,5.0
23.56940245628357,1086,0.0,30.0,5.0
23.578667163848877,1841,0.0,30.0,5.0
23.5848228931427,1222,0.0,30.0,5.0
23.59906554222107,1797,0.0,30.0,5.0
23.60252571105957,1439,0.0,30.0,5.0
23.619271278381348,1803,0.0,30.0,5.0
23.629284143447876,4095,0.0,30.0,5.0
23.639435291290283,4095,0.0,30.0,5.0
23.64043092727661,4095,0.0,30.0,5.0
23.65817880630493,4095,0.0,30.0,5.0
23.66819477081299,4095,0.0,30.0,5.0
23.67819356918335,4095,0.0,30.0,5.0
23.688193798065186,4095,0.0,30.0,5.0
23.69819474220276,4095,0.0,30.0,5.0
23.70927095413208,4095,0.0,30.0,5.0
23.719291925430298,4095,0.0,30.0,5.0
23.729289293289185,4095,0.0,30.0,5.0
23.739283323287964,4095,0.0,30.0,5.0
23.749282360076904,2499,0.0,30.0,5.0
23.759283542633057,4095,0.0,30.0,5.0
23.769283056259155,1315,0.0,30.0,5.0
23.779345273971558,4095,0.0,30.0,5.0
23.786197662353516,544,0.0,30.0,5.0
23.794224500656128,4095,0.0,30.0,5.0
23.808573722839355,0,0.0,30.0,5.0
23.819278240203857,4095,0.0,30.0,5.0
23.827287912368774,373,0.0,30.0,5.0
23.83904528617859,4095,0.0,30.0,5.0
23.849045038223267,64,0.0,30.0,5.0
23.858081817626953,4095,0.0,30.0,5.0
23.868083715438843,0,0.0,30.0,5.0
23.878085136413574,4095,0.0,30.0,5.0
23.88808274269104,1030,0.0,30.0,5.0
23.898082494735718,4095,0.0,30.0,5.0
23.909244775772095,1463,0.0,30.0,5.0
23.919257640838623,4095,0.0,30.0,5.0
23.929253816604614,1083,0.0,30.0,5.0
23.939279556274414,4095,0.0,30.0,5.0
23.949257373809814,1200,0.0,30.0,5.0
23.959253787994385,4095,0.0,30.0,5.0
23.969261407852173,943,0.0,30.0,5.0
23.979257583618164,4095,0.0,30.0,5.0
23.98955249786377,1262,0.0,30.0,5.0
23.999372720718384,4095,0.0,30.0,5.0
24.00236177444458,826,0.0,30.0,5.0
24.016904830932617,4095,0.0,30.0,5.0
24.02565574645996,912,0.0,30.0,5.0
24.033279180526733,4095,0.0,30.0,5.0
24.049014568328857,967,0.0,30.0,5.0
24.050012588500977,4095,0.0,30.0,5.0
24.06002140045166,823,0.0,30.0,5.0
24.070022583007812,4095,0.0,30.0,5.0
24.080021619796753,2372,0.0,30.0,5.0
24.09002161026001,4095,0.0,30.0,5.0
24.101547241210938,4095,0.0,30.0,5.0
24.11156702041626,4095,0.0,30.0,5.0
24.121567249298096,4095,0.0,30.0,5.0
24.131568431854248,4095,0.0,30.0,5.0
24.14156699180603,4095,0.0,30.0,5.0
24.15313196182251,4095,0.0,30.0,5.0
24.167742490768433,4095,0.0,30.0,5.0
24.17175054550171,4095,0.0,30.0,5.0
24.181761264801025,4095,0.0,30.0,5.0
24.199530839920044,4095,0.0,30.0,5.0
24.20544457435608,3081,0.0,30.0,5.0
24.21927833557129,4095,0.0,30.0,5.0
24.227287769317627,2747,0.0,30.0,5.0
24.233561277389526,4095,0.0,30.0,5.0
24.24900531768799,2806,0.0,30.0,5.0
24.25002408027649,4095,0.0,30.0,5.0
24.26002597808838,2240,0.0,30.0,5.0
24.27526021003723,4095,0.0,30.0,5.0
24.285276174545288,1616,0.0,30.0,5.0
24.295276165008545,1858,0.0,30.0,5.0
24.30640459060669,1392,0.0,30.0,5.0
24.316411018371582,1701,0.0,30.0,5.0
24.32927107810974,1758,0.0,30.0,5.0
24.339279651641846,1824,0.0,30.0,5.0
24.34928297996521,1819,0.0,30.0,5.0
24.35929584503174,1297,0.0,30.0,5.0
24.369282722473145,2800,0.0,30.0,5.0
24.379279613494873,609,0.0,30.0,5.0
24.3892822265625,2924,0.0,30.0,5.0
24.399283409118652,0,0.0,30.0,5.0
24.409400463104248,4095,0.0,30.0,5.0
24.41916561126709,4095,0.0,30.0,5.0
24.42106318473816,4095,0.0,30.0,5.0
24.43472695350647,4093,0.0,30.0,5.0
24.448816776275635,4095,0.0,30.0,5.0
24.458903312683105,4095,0.0,30.0,5.0
24.467931985855103,4095,0.0,30.0,5.0
24.477933168411255,4095,0.0,30.0,5.0
24.48927068710327,4095,0.0,30.0,5.0
24.49928331375122,4095,0.0,30.0,5.0
24.509283304214478,4095,0.0,30.0,5.0
24.51928210258484,4095,0.0,30.0,5.0
24.52928352355957,4095,0.0,30.0,5.0
24.539283514022827,4095,0.0,30.0,5.0
24.54927134513855,4095,0.0,30.0,5.0
24.5592839717865,4095,0.0,30.0,5.0
24.569283485412598,4095,0.0,30.0,5.0
24.579283714294434,0,0.0,30.0,5.0
24.58930230140686,923,0.0,30.0,5.0
24.599284172058105,0,0.0,30.0,5.0
24.609591484069824,4095,0.0,30.0,5.0
24.610605239868164,0,0.0,30.0,5.0
24.628689289093018,1942,0.0,30.0,5.0
24.633495330810547,0,0.0,30.0,5.0
24.648773431777954,4095,0.0,30.0,5.0
24.659114837646484,0,0.0,30.0,5.0
24.66657304763794,0,0.0,30.0,5.0
24.678272247314453,4095,0.0,30.0,5.0
24.68364381790161,3735,0.0,30.0,5.0
24.69453191757202,3243,0.0,30.0,5.0
24.70453190803528,4095,0.0,30.0,5.0
24.714532136917114,4095,0.0,30.0,5.0
24.72453284263611,4095,0.0,30.0,5.0
24.734542846679688,4095,0.0,30.0,5.0
24.744531869888306,4095,0.0,30.0,5.0
24.754533052444458,4095,0.0,30.0,5.0
24.764533758163452,4095,0.0,30.0,5.0
24.779244899749756,4095,0.0,30.0,5.0
24.789257526397705,4095,0.0,30.0,5.0
24.799253702163696,4095,0.0,30.0,5.0
24.809255123138428,4095,0.0,30.0,5.0
24.819257020950317,4095,0.0,30.0,5.0
24.82925772666931,4095,0.0,30.0,5.0
24.839341402053833,4095,0.0,30.0,5.0
24.848791122436523,4095,0.0,30.0,5.0
24.8520245552063,4095,0.0,30.0,5.0
24.86751937866211,4095,0.0,30.0,5.0
24.878533363342285,0,0.0,30.0,5.0
24.883136749267578,2016,0.0,30.0,5.0
24.89891004562378,4095,0.0,30.0,5.0
24.899908304214478,4095,0.0,30.0,5.0
24.90991759300232,3494,0.0,30.0,5.0
24.919917583465576,4095,0.0,30.0,5.0
24.929917573928833,4095,0.0,30.0,5.0
24.939918518066406,4095,0.0,30.0,5.0
24.949918746948242,4095,0.0,30.0,5.0
24.959917545318604,4095,0.0,30.0,5.0
24.96991753578186,4095,0.0,30.0,5.0
24.979917526245117,4095,0.0,30.0,5.0
24.989917516708374,4095,0.0,30.0,5.0
24.999918460845947,4095,0.0,30.0,5.0
25.009918689727783,4095,0.0,30.0,5.0
25.01991868019104,4095,0.0,30.0,5.0
25.029918670654297,4095,0.0,30.0,5.0
25.039917469024658,4095,0.0,30.0,5.0
25.058948278427124,4095,0.0,30.0,5.0
25.06689739227295,4095,0.0,30.0,5.0
25.07714009284973,4095,0.0,30.0,5.0
25.08327889442444,4095,0.0,30.0,5.0
25.09911561012268,4095,0.0,30.0,5.0
25.10088849067688,4095,0.0,30.0,5.0
25.113160133361816,4095,0.0,30.0,5.0
25.123175621032715,4095,0.0,30.0,5.0
25.135340213775635,4095,0.0,30.0,5.0
25.14535665512085,4095,0.0,30.0,5.0
25.155357360839844,4095,0.0,30.0,5.0
25.166643381118774,4095,0.0,30.0,5.0
25.177512884140015,4095,0.0,30.0,5.0
25.18880319595337,4095,0.0,30.0,5.0
25.196111917495728,4095,0.0,30.0,5.0
25.20612144470215,4095,0.0,30.0,5.0
25.219271421432495,4095,0.0,30.0,5.0
25.229288578033447,4095,0.0,30.0,5.0
25.23929238319397,4095,0.0,30.0,5.0
25.249273538589478,4095,0.0,30.0,5.0
25.25928568840027,4095,0.0,30.0,5.0
25.26938486099243,4095,0.0,30.0,5.0
25.278905630111694,4095,0.0,30.0,5.0
25.284501552581787,4095,0.0,30.0,5.0
25.298758029937744,4095,0.0,30.0,5.0
25.309247255325317,4095,0.0,30.0,5.0
25.315539598464966,4095,0.0,30.0,5.0
25.329244375228882,4095,0.0,30.0,5.0
25.33927893638611,4095,0.0,30.0,5.0
25.349256992340088,4095,0.0,30.0,5.0
25.359256744384766,4095,0.0,30.0,5.0
25.36925435066223,4095,0.0,30.0,5.0
25.379414319992065,4095,0.0,30.0,5.0
25.380410194396973,4095,0.0,30.0,5.0
25.390418529510498,4095,0.0,30.0,5.0
25.400418758392334,4095,0.0,30.0,5.0
25.410432815551758,4095,0.0,30.0,5.0
25.4204261302948,4095,0.0,30.0,5.0
25.430418729782104,4095,0.0,30.0,5.0
25.449244499206543,4095,0.0,30.0,5.0
25.45928144454956,4095,0.0,30.0,5.0
25.469265699386597,4095,0.0,30.0,5.0
25.479417324066162,4095,0.0,30.0,5.0
25.4894757270813,4095,0.0,30.0,5.0
25.498664140701294,4095,0.0,30.0,5.0
25.501657009124756,4095,0.0,30.0,5.0
25.519251823425293,4095,0.0,30.0,5.0
25.52726173400879,4095,0.0,30.0,5.0
25.534056901931763,4095,0.0,30.0,5.0
25.54866313934326,4095,0.0,30.0,5.0
25.54968810081482,4095,0.0,30.0,5.0
25.55972146987915,4095,0.0,30.0,5.0
25.569697380065918,4095,0.0,30.0,5.0
25.579697370529175,4095,0.0,30.0,5.0
25.58969736099243,4095,0.0,30.0,5.0
25.599698543548584,4095,0.0,30.0,5.0
25.609697580337524,4095,0.0,30.0,5.0
25.621949672698975,4095,0.0,30.0,5.0
25.63196611404419,4095,0.0,30.0,5.0
25.641966342926025,4095,0.0,30.0,5.0
25.651966094970703,4095,0.0,30.0,5.0
25.66196632385254,4095,0.0,30.0,5.0
25.673282146453857,4095,0.0,30.0,5.0
25.687666177749634,4095,0.0,30.0,5.0
25.699445486068726,4095,0.0,30.0,5.0
25.705323457717896,4095,0.0,30.0,5.0
25.71530842781067,4095,0.0,30.0,5.0
25.724294900894165,4095,0.0,30.0,5.0
25.734039783477783,4095,0.0,30.0,5.0
25.749605894088745,4095,0.0,30.0,5.0
25.749605894088745,4095,0.0,30.0,5.0
25.759615898132324,2306,0.0,30.0,5.0
25.76961588859558,4095,0.0,30.0,5.0
25.77961492538452,1611,0.0,30.0,5.0
25.789615869522095,4095,0.0,30.0,5.0
25.79961585998535,2431,0.0,30.0,5.0
25.80961585044861,4095,0.0,30.0,5.0
25.8292715549469,2766,0.0,30.0,5.0
25.83928394317627,4095,0.0,30.0,5.0
25.849284172058105,4095,0.0,30.0,5.0
25.85928440093994,4095,0.0,30.0,5.0
25.8692843914032,4095,0.0,30.0,5.0
25.87928032875061,4095,0.0,30.0,5.0
25.889284372329712,4095,0.0,30.0,5.0
25.899384260177612,4095,0.0,30.0,5.0
25.909125566482544,4095,0.0,30.0,5.0
25.91761088371277,4095,0.0,30.0,5.0
25.926655769348145,4095,0.0,30.0,5.0
25.931920051574707,4095,0.0,30.0,5.0
25.94884943962097,4095,0.0,30.0,5.0
25.95062756538391,4095,0.0,30.0,5.0
25.96063780784607,4095,0.0,30.0,5.0
25.97063899040222,4095,0.0,30.0,5.0
25.98063898086548,0,0.0,30.0,5.0
25.99063801765442,4095,0.0,30.0,5.0
26.00063991546631,0,0.0,30.0,5.0
26.010637998580933,2352,0.0,30.0,5.0
26.02063798904419,4095,0.0,30.0,5.0
26.030638217926025,4095,0.0,30.0,5.0
26.0406391620636,0,0.0,30.0,5.0
26.057852029800415,4095,0.0,30.0,5.0
26.06786346435547,4095,0.0,30.0,5.0
26.079270839691162,4095,0.0,30.0,5.0
26.089282989501953,4095,0.0,30.0,5.0
26.097193956375122,4095,0.0,30.0,5.0
26.108551502227783,4095,0.0,30.0,5.0
26.11926245689392,4095,0.0,30.0,5.0
26.12247633934021,4095,0.0,30.0,5.0
26.134944200515747,4095,0.0,30.0,5.0
26.148547410964966,4095,0.0,30.0,5.0
26.158560037612915,4095,0.0,30.0,5.0
26.166369199752808,4095,0.0,30.0,5.0
26.174163818359375,4095,0.0,30.0,5.0
26.186540842056274,4095,0.0,30.0,5.0
26.199501991271973,4095,0.0,30.0,5.0
26.209572792053223,4095,0.0,30.0,5.0
26.219599723815918,4095,0.0,30.0,5.0
26.220596313476562,4095,0.0,30.0,5.0
26.230604887008667,4095,0.0,30.0,5.0
26.24928116798401,4095,0.0,30.0,5.0
26.2592933177948,4095,0.0,30.0,5.0
26.269311904907227,4095,0.0,30.0,5.0
26.279289722442627,4095,0.0,30.0,5.0
26.289289951324463,4095,0.0,30.0,5.0
26.29929256439209,4095,0.0,30.0,5.0
26.309587717056274,4095,0.0,30.0,5.0
26.310585021972656,4095,0.0,30.0,5.0
26.329425811767578,4095,0.0,30.0,5.0
26.333779096603394,4095,0.0,30.0,5.0
26.348478317260742,703,0.0,30.0,5.0
26.358696699142456,4095,0.0,30.0,5.0
26.367185354232788,162,0.0,30.0,5.0
26.37928080558777,4095,0.0,30.0,5.0
26.389291286468506,1058,0.0,30.0,5.0
26.399293184280396,4095,0.0,30.0,5.0
26.409293174743652,1246,0.0,30.0,5.0
26.41929316520691,4095,0.0,30.0,5.0
26.429292917251587,624,0.0,30.0,5.0
26.439292192459106,4095,0.0,30.0,5.0
26.449293613433838,287,0.0,30.0,5.0
26.45928955078125,4095,0.0,30.0,5.0
26.46929359436035,97,0.0,30.0,5.0
26.47929310798645,4095,0.0,30.0,5.0
26.480929374694824,35,0.0,30.0,5.0
26.49107050895691,4095,0.0,30.0,5.0
26.501070499420166,0,0.0,30.0,5.0
26.511070489883423,4095,0.0,30.0,5.0
26.52107048034668,0,0.0,30.0,5.0
26.531070947647095,4095,0.0,30.0,5.0
26.549188375473022,2446,0.0,30.0,5.0
26.554869651794434,4095,0.0,30.0,5.0
26.565239906311035,2675,0.0,30.0,5.0
26.57412886619568,4095,0.0,30.0,5.0
26.589277744293213,2500,0.0,30.0,5.0
26.599336862564087,4095,0.0,30.0,5.0
26.60940194129944,1248,0.0,30.0,5.0
26.610392332077026,4095,0.0,30.0,5.0
26.620397567749023,358,0.0,30.0,5.0
26.630398988723755,4095,0.0,30.0,5.0
26.641671657562256,783,0.0,30.0,5.0
26.65169858932495,4095,0.0,30.0,5.0
26.66169309616089,527,0.0,30.0,5.0
26.671693086624146,4095,0.0,30.0,5.0
26.68169665336609,431,0.0,30.0,5.0
26.69305396080017,4095,0.0,30.0,5.0
26.7039315700531,542,0.0,30.0,5.0
26.713927268981934,4095,0.0,30.0,5.0
26.72929358482361,4095,0.0,30.0,5.0
26.731349229812622,4095,0.0,30.0,5.0
26.741355180740356,3216,0.0,30.0,5.0
26.753859519958496,4095,0.0,30.0,5.0
26.767077207565308,2431,0.0,30.0,5.0
26.77508783340454,4095,0.0,30.0,5.0
26.784340620040894,2647,0.0,30.0,5.0
26.79944610595703,4095,0.0,30.0,5.0
26.80045795440674,4095,0.0,30.0,5.0
26.819129467010498,4095,0.0,30.0,5.0
26.825543880462646,4095,0.0,30.0,5.0
26.83555555343628,4095,0.0,30.0,5.0
26.845555305480957,4095,0.0,30.0,5.0
26.855555534362793,4095,0.0,30.0,5.0
26.86555528640747,4095,0.0,30.0,5.0
26.875555515289307,4095,0.0,30.0,5.0
26.88555669784546,4095,0.0,30.0,5.0
26.899271726608276,4095,0.0,30.0,5.0
26.909284353256226,4095,0.0,30.0,5.0
26.919284105300903,4095,0.0,30.0,5.0
26.92928433418274,702,0.0,30.0,5.0
26.93929672241211,4095,0.0,30.0,5.0
26.949283123016357,7,0.0,30.0,5.0
26.959283113479614,4095,0.0,30.0,5.0
26.969366312026978,0,0.0,30.0,5.0
26.978656768798828,4095,0.0,30.0,5.0
26.98289203643799,0,0.0,30.0,5.0
26.999380111694336,4095,0.0,30.0,5.0
27.009385347366333,0,0.0,30.0,5.0
27.01604986190796,4095,0.0,30.0,5.0
27.0292809009552,4095,0.0,30.0,5.0
27.039290189743042,4095,0.0,30.0,5.0
27.04972767829895,4095,0.0,30.0,5.0
27.05072283744812,4095,0.0,30.0,5.0
27.060765266418457,4095,0.0,30.0,5.0
27.070764780044556,4095,0.0,30.0,5.0
27.08076500892639,4095,0.0,30.0,5.0
27.09076738357544,4095,0.0,30.0,5.0
27.101987600326538,4095,0.0,30.0,5.0
27.11200475692749,4095,0.0,30.0,5.0
27.123430013656616,4095,0.0,30.0,5.0
27.133438110351562,4095,0.0,30.0,5.0
27.144734621047974,4095,0.0,30.0,5.0
27.15476369857788,4095,0.0,30.0,5.0
27.166322708129883,4095,0.0,30.0,5.0
27.178781747817993,4095,0.0,30.0,5.0
27.18896746635437,4095,0.0,30.0,5.0
27.19851517677307,4095,0.0,30.0,5.0
27.20941162109375,4095,0.0,30.0,5.0
27.21925187110901,4095,0.0,30.0,5.0
27.227261543273926,4095,0.0,30.0,5.0
27.23528552055359,4095,0.0,30.0,5.0
27.2485249042511,4095,0.0,30.0,5.0
27.252256393432617,4095,0.0,30.0,5.0
27.26227116584778,4095,0.0,30.0,5.0
27.2722749710083,4095,0.0,30.0,5.0
27.282271146774292,4095,0.0,30.0,5.0
27.292271375656128,4095,0.0,30.0,5.0
27.302271127700806,4095,0.0,30.0,5.0
27.312271118164062,4095,0.0,30.0,5.0
27.32239079475403,4095,0.0,30.0,5.0
27.33337640762329,4095,0.0,30.0,5.0
27.343376398086548,4095,0.0,30.0,5.0
27.353376150131226,4095,0.0,30.0,5.0
27.363377332687378,4095,0.0,30.0,5.0
27.37337613105774,4095,0.0,30.0,5.0
27.386104822158813,4095,0.0,30.0,5.0
27.399266481399536,4095,0.0,30.0,5.0
27.40827226638794,4095,0.0,30.0,5.0
27.415960550308228,4095,0.0,30.0,5.0
27.425034761428833,4095,0.0,30.0,5.0
27.43373394012451,4095,0.0,30.0,5.0
27.44947600364685,4095,0.0,30.0,5.0
27.459483861923218,4095,0.0,30.0,5.0
27.469483613967896,4095,0.0,30.0,5.0
27.479483604431152,4095,0.0,30.0,5.0
27.48948383331299,4095,0.0,30.0,5.0
27.499967098236084,4095,0.0,30.0,5.0
27.50096321105957,4095,0.0,30.0,5.0
27.510976791381836,4095,0.0,30.0,5.0
27.520976066589355,4095,0.0,30.0,5.0
27.53927206993103,4095,0.0,30.0,5.0
27.542975902557373,4095,0.0,30.0,5.0
27.559271097183228,4095,0.0,30.0,5.0
27.569283723831177,4095,0.0,30.0,5.0
27.579283952713013,4095,0.0,30.0,5.0
27.589287519454956,4095,0.0,30.0,5.0
27.59942626953125,4095,0.0,30.0,5.0
27.609008073806763,4095,0.0,30.0,5.0
27.61735439300537,4095,0.0,30.0,5.0
27.6253604888916,4095,0.0,30.0,5.0
27.63260793685913,4095,0.0,30.0,5.0
27.649259090423584,4095,0.0,30.0,5.0
27.6502525806427,4095,0.0,30.0,5.0
27.66026544570923,4095,0.0,30.0,5.0
27.67026424407959,4095,0.0,30.0,5.0
27.680264472961426,4095,0.0,30.0,5.0
27.691995859146118,4095,0.0,30.0,5.0
27.70426344871521,4095,0.0,30.0,5.0
27.71427869796753,4095,0.0,30.0,5.0
27.729268312454224,4095,0.0,30.0,5.0
27.739278316497803,4095,0.0,30.0,5.0
27.749276876449585,4095,0.0,30.0,5.0
27.759371280670166,4095,0.0,30.0,5.0
27.766111373901367,4095,0.0,30.0,5.0
27.776487588882446,4095,0.0,30.0,5.0
27.787452936172485,4095,0.0,30.0,5.0
27.797448873519897,4095,0.0,30.0,5.0
27.809292793273926,4095,0.0,30.0,5.0
27.81940460205078,4095,0.0,30.0,5.0
27.82172679901123,4095,0.0,30.0,5.0
27.832932472229004,4095,0.0,30.0,5.0
27.848522663116455,4095,0.0,30.0,5.0
27.857544660568237,4095,0.0,30.0,5.0
27.866597414016724,4095,0.0,30.0,5.0
27.876603841781616,4095,0.0,30.0,5.0
27.889277696609497,4095,0.0,30.0,5.0
27.899288654327393,4095,0.0,30.0,5.0
27.909290075302124,4095,0.0,30.0,5.0
27.919429779052734,4095,0.0,30.0,5.0
27.9204261302948,4095,0.0,30.0,5.0
27.930464267730713,4095,0.0,30.0,5.0
27.940446853637695,4095,0.0,30.0,5.0
27.950434923171997,4095,0.0,30.0,5.0
27.96171998977661,4095,0.0,30.0,5.0
27.97173309326172,4095,0.0,30.0,5.0
27.981731176376343,4095,0.0,30.0,5.0
27.99173140525818,4095,0.0,30.0,5.0
28.001732349395752,4095,0.0,30.0,5.0
28.01173233985901,4095,0.0,30.0,5.0
28.029452800750732,4095,0.0,30.0,5.0
28.036288261413574,4095,0.0,30.0,5.0
28.049203634262085,4095,0.0,30.0,5.0
28.058252334594727,4095,0.0,30.0,5.0
28.065853595733643,4095,0.0,30.0,5.0
28.076825380325317,4095,0.0,30.0,5.0
28.08925700187683,4095,0.0,30.0,5.0
28.099267959594727,4095,0.0,30.0,5.0
28.109285593032837,4095,0.0,30.0,5.0
28.109805583953857,4095,0.0,30.0,5.0
28.12076234817505,4095,0.0,30.0,5.0
28.13076138496399,4095,0.0,30.0,5.0
28.140762329101562,4095,0.0,30.0,5.0
28.15076231956482,4095,0.0,30.0,5.0
28.16924476623535,4095,0.0,30.0,5.0
28.179272413253784,4095,0.0,30.0,5.0
28.189257383346558,4095,0.0,30.0,5.0
28.199257135391235,4095,0.0,30.0,5.0
28.20928645133972,4095,0.0,30.0,5.0
28.21172308921814,4095,0.0,30.0,5.0
28.22173261642456,4095,0.0,30.0,5.0
28.234557390213013,4095,0.0,30.0,5.0
28.249311923980713,4095,0.0,30.0,5.0
28.25935649871826,4095,0.0,30.0,5.0
28.266117811203003,4095,0.0,30.0,5.0
28.27868366241455,4095,0.0,30.0,5.0
28.28344464302063,4095,0.0,30.0,5.0
28.293461799621582,4095,0.0,30.0,5.0
28.309480667114258,4095,0.0,30.0,5.0
28.319486618041992,4095,0.0,30.0,5.0
28.329488277435303,4095,0.0,30.0,5.0
28.339487075805664,4095,0.0,30.0,5.0
28.349495887756348,4095,0.0,30.0,5.0
28.3594868183136,4095,0.0,30.0,5.0
28.369490146636963,4095,0.0,30.0,5.0
28.37948966026306,4095,0.0,30.0,5.0
28.38948678970337,4095,0.0,30.0,5.0
28.399491786956787,4095,0.0,30.0,5.0
28.409486770629883,4095,0.0,30.0,5.0
28.419490575790405,4095,0.0,30.0,5.0
28.429486751556396,4095,0.0,30.0,5.0
28.43949007987976,4095,0.0,30.0,5.0
28.44971776008606,4095,0.0,30.0,5.0
28.459452867507935,4095,0.0,30.0,5.0
28.466729164123535,4095,0.0,30.0,5.0
28.474743843078613,4095,0.0,30.0,5.0
28.482442140579224,4095,0.0,30.0,5.0
28.499186515808105,3445,0.0,30.0,5.0
28.500184535980225,4095,0.0,30.0,5.0
28.51146697998047,3974,0.0,30.0,5.0
28.52147603034973,4095,0.0,30.0,5.0
28.53147554397583,3425,0.0,30.0,5.0
28.54147481918335,4095,0.0,30.0,5.0
28.551474809646606,3319,0.0,30.0,5.0
28.56924605369568,4095,0.0,30.0,5.0
28.579261779785156,3059,0.0,30.0,5.0
28.589261531829834,4095,0.0,30.0,5.0
28.59927773475647,2982,0.0,30.0,5.0
28.60926127433777,4095,0.0,30.0,5.0
28.619601488113403,2843,0.0,30.0,5.0
28.62059998512268,4095,0.0,30.0,5.0
28.63061547279358,2733,0.0,30.0,5.0
28.640625,4095,0.0,30.0,5.0
28.650619745254517,2642,0.0,30.0,5.0
28.669293880462646,4095,0.0,30.0,5.0
28.675215244293213,2590,0.0,30.0,5.0
28.689351797103882,4095,0.0,30.0,5.0
28.699455976486206,2512,0.0,30.0,5.0
28.708372116088867,4095,0.0,30.0,5.0
28.71883225440979,2448,0.0,30.0,5.0
28.72906184196472,4095,0.0,30.0,5.0
28.73005962371826,2275,0.0,30.0,5.0
28.749465703964233,4095,0.0,30.0,5.0
28.75975489616394,4095,0.0,30.0,5.0
28.76075029373169,4095,0.0,30.0,5.0
28.770790338516235,3557,0.0,30.0,5.0
28.78780221939087,4095,0.0,30.0,5.0
28.799455881118774,1436,0.0,30.0,5.0
28.809462785720825,4095,0.0,30.0,5.0
28.819461345672607,4095,0.0,30.0,5.0
28.829461336135864,4095,0.0,30.0,5.0
28.83946204185486,2259,0.0,30.0,5.0
28.84946084022522,4095,0.0,30.0,5.0
28.859461545944214,2288,0.0,30.0,5.0
28.86946129798889,4095,0.0,30.0,5.0
28.879460334777832,2221,0.0,30.0,5.0
28.88914704322815,4095,0.0,30.0,5.0
28.897981643676758,2373,0.0,30.0,5.0
28.913640022277832,4095,0.0,30.0,5.0
28.918317317962646,2235,0.0,30.0,5.0
28.926329135894775,4095,0.0,30.0,5.0
28.93337321281433,2113,0.0,30.0,5.0
28.949257373809814,4095,0.0,30.0,5.0
28.959391593933105,1645,0.0,30.0,5.0
28.96038818359375,4095,0.0,30.0,5.0
28.970398426055908,1630,0.0,30.0,5.0
28.98039746284485,4095,0.0,30.0,5.0
28.990397453308105,1661,0.0,30.0,5.0
29.00928258895874,4095,0.0,30.0,5.0
29.019312620162964,1683,0.0,30.0,5.0
29.02929162979126,3597,0.0,30.0,5.0
29.03930950164795,1677,0.0,30.0,5.0
29.049294471740723,2507,0.0,30.0,5.0
29.05575704574585,1685,0.0,30.0,5.0
29.065263032913208,2654,0.0,30.0,5.0
29.07875919342041,1670,0.0,30.0,5.0
29.086318492889404,2173,0.0,30.0,5.0
29.09904980659485,1505,0.0,30.0,5.0
29.109160661697388,2009,0.0,30.0,5.0
29.116952419281006,1296,0.0,30.0,5.0
29.125688552856445,1718,0.0,30.0,5.0
29.1390483379364,1113,0.0,30.0,5.0
29.148815870285034,1235,0.0,30.0,5.0
29.15655207633972,992,0.0,30.0,5.0
29.169691801071167,631,0.0,30.0,5.0
29.179422855377197,882,0.0,30.0,5.0
29.189351558685303,530,0.0,30.0,5.0
29.198792934417725,619,0.0,30.0,5.0
29.20948052406311,1261,0.0,30.0,5.0
29.217316389083862,603,0.0,30.0,5.0
29.22647714614868,1917,0.0,30.0,5.0
29.23891854286194,758,0.0,30.0,5.0
29.248833179473877,1507,0.0,30.0,5.0
29.256454706192017,809,0.0,30.0,5.0
29.26996946334839,1321,0.0,30.0,5.0
29.279236555099487,843,0.0,30.0,5.0
29.285946369171143,1726,0.0,30.0,5.0
29.29863929748535,851,0.0,30.0,5.0
29.30903911590576,2195,0.0,30.0,5.0
29.317527770996094,839,0.0,30.0,5.0
29.3271644115448,2883,0.0,30.0,5.0
29.338762521743774,845,0.0,30.0,5.0
29.348970413208008,3509,0.0,30.0,5.0
29.359222650527954,818,0.0,30.0,5.0
29.369642972946167,3674,0.0,30.0,5.0
29.378994941711426,795,0.0,30.0,5.0
29.389530420303345,4095,0.0,30.0,5.0
29.399760007858276,717,0.0,30.0,5.0
29.4089252948761,4095,0.0,30.0,5.0
29.417421579360962,752,0.0,30.0,5.0
29.42504382133484,4095,0.0,30.0,5.0
29.43930745124817,708,0.0,30.0,5.0
29.449378490447998,4095,0.0,30.0,5.0
29.455915451049805,688,0.0,30.0,5.0
29.469443321228027,4095,0.0,30.0,5.0
29.478955030441284,1179,0.0,30.0,5.0
29.486704111099243,4095,0.0,30.0,5.0
29.499361276626587,4095,0.0,30.0,5.0
29.50848627090454,4095,0.0,30.0,5.0
29.519155979156494,1552,0.0,30.0,5.0
29.52486276626587,2688,0.0,30.0,5.0
29.539205312728882,4095,0.0,30.0,5.0
29.548904418945312,4095,0.0,30.0,5.0
29.554569482803345,4095,0.0,30.0,5.0
29.569109439849854,3120,0.0,30.0,5.0
29.57860255241394,4095,0.0,30.0,5.0
29.586476802825928,3344,0.0,30.0,5.0
29.599738836288452,2445,0.0,30.0,5.0
29.609622478485107,3428,0.0,30.0,5.0
29.61740279197693,0,0.0,30.0,5.0
29.624672651290894,3376,0.0,30.0,5.0
29.639318704605103,0,0.0,30.0,5.0
29.649319887161255,3183,0.0,30.0,5.0
29.655548572540283,0,0.0,30.0,5.0
29.669091939926147,3664,0.0,30.0,5.0
29.678400993347168,0,0.0,30.0,5.0
29.689661026000977,4095,0.0,30.0,5.0
29.699590921401978,81,0.0,30.0,5.0
29.709229946136475,4095,0.0,30.0,5.0
29.71956992149353,324,0.0,30.0,5.0
29.723788261413574,4095,0.0,30.0,5.0
29.73899269104004,483,0.0,30.0,5.0
29.748882055282593,4095,0.0,30.0,5.0
29.759113550186157,486,0.0,30.0,5.0
29.768576622009277,4095,0.0,30.0,5.0
29.778183460235596,446,0.0,30.0,5.0
29.786812782287598,4095,0.0,30.0,5.0
29.79956817626953,264,0.0,30.0,5.0
29.808068990707397,3083,0.0,30.0,5.0
29.81743049621582,64,0.0,30.0,5.0
29.827210664749146,2752,0.0,30.0,5.0
29.83874773979187,59,0.0,30.0,5.0
29.84942626953125,2470,0.0,30.0,5.0
29.855030059814453,65,0.0,30.0,5.0
29.869298219680786,2363,0.0,30.0,5.0
29.877163648605347,64,0.0,30.0,5.0
29.889378309249878,2265,0.0,30.0,5.0
29.898477792739868,80,0.0,30.0,5.0
29.90769052505493,2270,0.0,30.0,5.0
29.919124603271484,82,0.0,30.0,5.0
29.92969560623169,2175,0.0,30.0,5.0
29.939051151275635,127,0.0,30.0,5.0
29.948898792266846,1974,0.0,30.0,5.0
29.958102703094482,128,0.0,30.0,5.0
29.969138622283936,2309,0.0,30.0,5.0
29.977797508239746,139,0.0,30.0,5.0
29.986555814743042,2494,0.0,30.0,5.0
29.99899172782898,156,0.0,30.0,5.0
