Timestamp,EMG Value,massage_speed,massage_duration,relaxment_level
0.001000166,1387,0,30,0
0.011216879,0,0,30,0
0.01222086,2132,0,30,0
0.02336359,2423,0,30,0
0.033381939,2263,0,30,0
0.043382168,2615,0,30,0
0.061630249,1396,0,30,0
0.071638107,0,0,30,0
0.081651211,91,0,30,0
0.081651211,0,0,30,0
0.101639509,89,0,30,0
0.111636877,0,0,30,0
0.111636877,235,0,30,0
0.131636858,0,0,30,0
0.141636848,428,0,30,0
0.143330574,0,0,30,0
0.153368473,522,0,30,0
0.163368464,0,0,30,0
0.173368216,482,0,30,0
0.183368444,0,0,30,0
0.193368196,690,0,30,0
0.210031271,0,0,30,0
0.212641478,377,0,30,0
0.231137991,0,0,30,0
0.240297556,310,0,30,0
0.248304367,0,0,30,0
0.25721693,291,0,30,0
0.265229225,0,0,30,0
0.273287535,183,0,30,0
0.290929317,0,0,30,0
0.300783634,271,0,30,0
0.301780701,0,0,30,0
0.312597752,347,0,30,0
0.322597265,0,0,30,0
0.332597494,258,0,30,0
0.344181538,0,0,30,0
0.359984398,95,0,30,0
0.370025873,0,0,30,0
0.381295204,1933,0,30,0
0.391310692,2085,0,30,0
0.401310205,2423,0,30,0
0.402634621,2339,0,30,0
0.412648201,2282,0,30,0
0.43070817,2304,0,30,0
0.44049716,2208,0,30,0
0.448528528,2261,0,30,0
0.45685339,2307,0,30,0
0.464863777,2197,0,30,0
0.473695278,2315,0,30,0
0.485903025,2247,0,30,0
0.495909214,2238,0,30,0
0.505908966,2253,0,30,0
0.520430803,2181,0,30,0
0.523243427,2262,0,30,0
0.534406185,2170,0,30,0
0.545541525,2249,0,30,0
0.555553675,2151,0,30,0
0.565554619,2002,0,30,0
0.577774048,496,0,30,0
0.58820796,1738,0,30,0
0.59822464,1063,0,30,0
0.61149478,1920,0,30,0
0.612490654,1410,0,30,0
0.622495413,1671,0,30,0
0.640974283,2053,0,30,0
0.649313688,1898,0,30,0
0.656932116,1951,0,30,0
0.664939642,1949,0,30,0
0.681244373,1482,0,30,0
0.689250231,2011,0,30,0
0.69580555,1123,0,30,0
0.711253166,2000,0,30,0
0.7186625,416,0,30,0
0.726333618,1980,0,30,0
0.741130352,351,0,30,0
0.749503851,1946,0,30,0
0.757708549,3985,0,30,0
0.770499945,447,0,30,0
0.781289577,4095,0,30,0
0.791263103,474,0,30,0
0.801198959,853,0,30,0
0.811070442,1689,0,30,0
0.818387747,592,0,30,0
0.827304602,1554,0,30,0
0.840675354,331,0,30,0
0.851199865,1553,0,30,0
0.861143351,206,0,30,0
0.864353418,1328,0,30,0
0.873510599,589,0,30,0
0.89127779,1359,0,30,0
0.899282217,833,0,30,0
0.908463717,1273,0,30,0
0.921476841,2259,0,30,0
0.924521685,481,0,30,0
0.934563875,4095,0,30,0
0.944576979,464,0,30,0
0.954563379,4095,0,30,0
0.9645648,417,0,30,0
0.974564075,3312,0,30,0
0.984564781,373,0,30,0
0.999461651,96,0,30,0
1.009471893,884,0,30,0
1.019472599,317,0,30,0
1.030105352,592,0,30,0
1.040641785,243,0,30,0
1.041640043,1056,0,30,0
1.055592299,292,0,30,0
1.071522951,1098,0,30,0
1.081393957,432,0,30,0
1.091103792,1411,0,30,0
1.100845337,308,0,30,0
1.111341476,1552,0,30,0
1.120744705,637,0,30,0
1.130425453,1279,0,30,0
1.141247749,695,0,30,0
1.150853157,1363,0,30,0
1.161015749,573,0,30,0
1.170675993,1419,0,30,0
1.180895805,695,0,30,0
1.191267967,1245,0,30,0
1.201399803,723,0,30,0
1.207679033,1359,0,30,0
1.216948032,704,0,30,0
1.22436595,1261,0,30,0
1.240978479,853,0,30,0
1.249971151,1451,0,30,0
1.25828433,757,0,30,0
1.270286798,1326,0,30,0
1.281080008,842,0,30,0
1.291217804,1141,0,30,0
1.295753956,714,0,30,0
1.310623407,1273,0,30,0
1.320848227,954,0,30,0
1.324164391,1314,0,30,0
1.339864492,959,0,30,0
1.34843421,1296,0,30,0
1.358393908,873,0,30,0
1.370654345,1306,0,30,0
1.373343706,966,0,30,0
1.391112089,1313,0,30,0
1.40064168,952,0,30,0
1.409261703,1376,0,30,0
1.418364525,1014,0,30,0
1.424640894,1703,0,30,0
1.441286564,1041,0,30,0
1.447794676,1436,0,30,0
1.458353519,1030,0,30,0
1.470868349,1047,0,30,0
1.480923891,1034,0,30,0
1.490940094,978,0,30,0
1.500483513,1482,0,30,0
1.509775639,910,0,30,0
1.521507263,1262,0,30,0
1.525815487,727,0,30,0
1.541240454,1225,0,30,0
1.547323942,2122,0,30,0
1.561236858,1270,0,30,0
1.562228441,2318,0,30,0
1.576340437,1535,0,30,0
1.591187716,2097,0,30,0
1.593186617,1508,0,30,0
1.60807991,1840,0,30,0
1.618919134,1297,0,30,0
1.624494314,1649,0,30,0
1.641181469,1161,0,30,0
1.642170668,1369,0,30,0
1.661649942,1008,0,30,0
1.661649942,1385,0,30,0
1.6769557,1209,0,30,0
1.691203117,1304,0,30,0
1.694136858,1173,0,30,0
1.710428476,1103,0,30,0
1.719908714,1092,0,30,0
1.725517035,874,0,30,0
1.741333723,943,0,30,0
1.745011091,1514,0,30,0
1.757858753,823,0,30,0
1.771596193,1680,0,30,0
1.777903795,689,0,30,0
1.791388988,1260,0,30,0
1.793375969,1935,0,30,0
1.808177471,1136,0,30,0
1.81622982,1231,0,30,0
1.825951338,976,0,30,0
1.84092021,963,0,30,0
1.848047733,731,0,30,0
1.861583471,1034,0,30,0
1.869937897,1872,0,30,0
1.881317854,1040,0,30,0
1.890898228,1223,0,30,0
1.901439905,1155,0,30,0
1.909280777,1280,0,30,0
1.921050787,1063,0,30,0
1.931330919,1243,0,30,0
1.941220999,1110,0,30,0
1.951350451,1308,0,30,0
1.960917711,1285,0,30,0
1.970087767,1829,0,30,0
1.981183529,1165,0,30,0
1.990959883,1904,0,30,0
2.000996113,1172,0,30,0
2.010792494,1726,0,30,0
2.020684719,1104,0,30,0
2.030874968,1927,0,30,0
2.04097724,1116,0,30,0
2.05121398,1629,0,30,0
2.061551571,1149,0,30,0
2.069663525,1787,0,30,0
2.080848694,1159,0,30,0
2.0906775,1843,0,30,0
2.100716352,1245,0,30,0
2.111157179,1733,0,30,0
2.120809555,1201,0,30,0
2.131101608,1838,0,30,0
2.141586065,1317,0,30,0
2.144307852,1954,0,30,0
2.157085657,1178,0,30,0
2.168339968,1959,0,30,0
2.177965164,1523,0,30,0
2.190506697,1730,0,30,0
2.198552608,1627,0,30,0
2.206587076,1918,0,30,0
2.215425491,1251,0,30,0
2.231740952,1936,0,30,0
2.239835024,914,0,30,0
2.251413822,1926,0,30,0
2.253288507,609,0,30,0
2.263338804,1519,0,30,0
2.277285814,346,0,30,0
2.285674095,1169,0,30,0
2.300004244,410,0,30,0
2.307812929,1599,0,30,0
2.320578098,2128,0,30,0
2.331180096,1616,0,30,0
2.339655161,1921,0,30,0
2.345146418,1470,0,30,0
2.360404491,1722,0,30,0
2.371515036,1343,0,30,0
2.377802134,1488,0,30,0
2.391065121,1059,0,30,0
2.401447058,1325,0,30,0
2.410937786,1737,0,30,0
2.418031216,1372,0,30,0
2.430986404,1653,0,30,0
2.44079423,1281,0,30,0
2.451096773,1303,0,30,0
2.460690975,1627,0,30,0
2.469383001,1174,0,30,0
2.480540514,693,0,30,0
2.491262197,1184,0,30,0
2.499618053,1849,0,30,0
2.511387825,1054,0,30,0
2.518008947,1891,0,30,0
2.531360865,1535,0,30,0
2.540999413,1749,0,30,0
2.550698519,1883,0,30,0
2.560983896,1158,0,30,0
2.570910931,1319,0,30,0
2.577426434,823,0,30,0
2.590825081,918,0,30,0
2.601536989,1905,0,30,0
2.60872364,1749,0,30,0
2.614908934,1217,0,30,0
2.630156279,1570,0,30,0
2.641325951,1087,0,30,0
2.650479078,783,0,30,0
2.661310196,1123,0,30,0
2.668644667,1754,0,30,0
2.680472851,2038,0,30,0
2.690759182,795,0,30,0
2.701218367,1255,0,30,0
2.711069822,773,0,30,0
2.720987797,1392,0,30,0
2.731178522,1847,0,30,0
2.740915775,1279,0,30,0
2.751406431,1721,0,30,0
2.760611534,1409,0,30,0
2.770554304,1859,0,30,0
2.781437397,1858,0,30,0
2.790961504,1834,0,30,0
2.801406145,1659,0,30,0
2.810662508,1739,0,30,0
2.820190668,1902,0,30,0
2.831129313,1872,0,30,0
2.840916395,1887,0,30,0
2.851437569,1837,0,30,0
2.860599279,1862,0,30,0
2.868858576,702,0,30,0
2.881130695,1939,0,30,0
2.891375065,701,0,30,0
2.900943041,1886,0,30,0
2.910871029,720,0,30,0
2.91637969,1936,0,30,0
2.930677891,686,0,30,0
2.940772772,1808,0,30,0
2.951446533,704,0,30,0
2.960220814,1918,0,30,0
2.961728573,816,0,30,0
2.976568222,1793,0,30,0
2.989914417,715,0,30,0
3.003538847,1502,0,30,0
3.010592699,798,0,30,0
3.020612717,1374,0,30,0
3.031006098,636,0,30,0
3.040872335,1363,0,30,0
3.049646378,2069,0,30,0
3.060561419,1520,0,30,0
3.067093372,1918,0,30,0
3.080760479,1367,0,30,0
3.09124279,1722,0,30,0
3.100507259,1392,0,30,0
3.111186028,1610,0,30,0
3.115896463,1347,0,30,0
3.131078005,1333,0,30,0
3.140728712,1408,0,30,0
3.151262999,1383,0,30,0
3.161052465,1281,0,30,0
3.168867826,1209,0,30,0
3.181185007,1104,0,30,0
3.191458225,962,0,30,0
3.201277494,877,0,30,0
3.211106777,1779,0,30,0
3.220429182,658,0,30,0
3.231397629,1570,0,30,0
3.241343975,583,0,30,0
3.249942541,1088,0,30,0
3.260817766,1421,0,30,0
3.270563602,912,0,30,0
3.280819178,1451,0,30,0
3.288723946,923,0,30,0
3.300715923,1398,0,30,0
3.311133146,1230,0,30,0
3.321187258,1481,0,30,0
3.330994844,1250,0,30,0
3.338703156,1737,0,30,0
3.351377726,1309,0,30,0
3.361038685,1679,0,30,0
3.371403217,1216,0,30,0
3.380650043,1728,0,30,0
3.391083002,1395,0,30,0
3.401449203,1728,0,30,0
3.410911322,1250,0,30,0
3.421127319,1796,0,30,0
3.431342602,1451,0,30,0
3.441240311,1840,0,30,0
3.451399565,1333,0,30,0
3.460536957,1822,0,30,0
3.466039896,772,0,30,0
3.480928421,1757,0,30,0
3.4906497,1423,0,30,0
3.499300718,1991,0,30,0
3.511207104,843,0,30,0
3.515887499,2077,0,30,0
3.530492783,1165,0,30,0
3.540966749,1955,0,30,0
3.549893618,1471,0,30,0
3.560569286,1870,0,30,0
3.567872524,1205,0,30,0
3.580851316,2010,0,30,0
3.589571714,1548,0,30,0
3.601305246,2352,0,30,0
3.610810757,2538,0,30,0
3.621985674,2192,0,30,0
3.630892992,2031,0,30,0
3.640188694,2148,0,30,0
3.651236773,1354,0,30,0
3.660642147,2192,0,30,0
3.671960831,1216,0,30,0
3.681100845,2243,0,30,0
3.691076994,2199,0,30,0
3.700945616,2251,0,30,0
3.710746765,2192,0,30,0
3.720980406,2176,0,30,0
3.730660439,2190,0,30,0
3.740705252,1877,0,30,0
3.750993967,2040,0,30,0
3.761436462,1574,0,30,0
3.771918297,1263,0,30,0
3.780968904,1346,0,30,0
3.790490389,883,0,30,0
3.80022645,1157,0,30,0
3.805375099,570,0,30,0
3.821195841,736,0,30,0
3.831222773,336,0,30,0
3.838513613,561,0,30,0
3.85144496,231,0,30,0
3.861246347,487,0,30,0
3.871343851,304,0,30,0
3.881320238,1798,0,30,0
3.891399145,2301,0,30,0
3.900635958,376,0,30,0
3.9105196,1135,0,30,0
3.92052722,336,0,30,0
3.931396246,413,0,30,0
3.941085815,364,0,30,0
3.949759722,2447,0,30,0
3.96128726,425,0,30,0
3.965523958,2096,0,30,0
3.980559111,355,0,30,0
3.990534782,2463,0,30,0
4.000499725,275,0,30,0
4.011162996,2514,0,30,0
4.020657301,205,0,30,0
4.030273914,2572,0,30,0
4.04144454,128,0,30,0
4.051258326,2559,0,30,0
4.060785055,202,0,30,0
4.071915627,2587,0,30,0
4.080396652,118,0,30,0
4.091463566,2581,0,30,0
4.100552559,207,0,30,0
4.111085653,2582,0,30,0
4.121197939,222,0,30,0
4.126384497,2608,0,30,0
4.14117074,192,0,30,0
4.151342869,2557,0,30,0
4.156198025,183,0,30,0
4.171948195,2635,0,30,0
4.175147295,496,0,30,0
4.189804316,2550,0,30,0
4.200584888,122,0,30,0
4.211013079,2599,0,30,0
4.221912384,84,0,30,0
4.231171608,2545,0,30,0
4.240996838,2101,0,30,0
4.251244068,2425,0,30,0
4.261082172,1464,0,30,0
4.271825552,2484,0,30,0
4.281224251,1563,0,30,0
4.290871143,2469,0,30,0
4.297909975,2217,0,30,0
4.310524702,2413,0,30,0
4.321791172,2199,0,30,0
4.331049442,2297,0,30,0
4.341650724,2089,0,30,0
4.350002289,2278,0,30,0
4.357637882,2110,0,30,0
4.365689516,2275,0,30,0
4.374845982,1968,0,30,0
4.391681433,2245,0,30,0
4.399688244,2057,0,30,0
4.409442425,2321,0,30,0
4.421359062,2115,0,30,0
4.431400061,1633,0,30,0
4.441250801,859,0,30,0
4.450999975,157,0,30,0
4.461031199,239,0,30,0
4.467298031,0,0,30,0
4.480658531,165,0,30,0
4.490973234,1808,0,30,0
4.501881838,1061,0,30,0
4.50935936,2528,0,30,0
4.521902084,1594,0,30,0
4.52571559,2485,0,30,0
4.540231466,2198,0,30,0
4.549367428,2357,0,30,0
4.55784893,2192,0,30,0
4.571982384,2337,0,30,0
4.574604988,2192,0,30,0
4.590082645,2221,0,30,0
4.59584856,2155,0,30,0
4.611433983,1168,0,30,0
4.62189126,1715,0,30,0
4.626641035,302,0,30,0
4.64091754,176,0,30,0
4.651031733,2622,0,30,0
4.661330462,235,0,30,0
4.670902491,2544,0,30,0
4.681096554,269,0,30,0
4.689356565,2352,0,30,0
4.698289633,181,0,30,0
4.709922314,0,0,30,0
4.721935034,368,0,30,0
4.724373817,89,0,30,0
4.74110508,544,0,30,0
4.750181437,115,0,30,0
4.757462025,542,0,30,0
4.771894932,129,0,30,0
4.773943901,475,0,30,0
4.791411877,105,0,30,0
4.794632196,429,0,30,0
4.808706284,0,0,30,0
4.821901798,350,0,30,0
4.826097965,0,0,30,0
4.839811087,318,0,30,0
4.85137248,0,0,30,0
4.861211777,300,0,30,0
4.870804787,0,0,30,0
4.873909235,304,0,30,0
4.890310526,0,0,30,0
4.89534235,256,0,30,0
4.911667109,0,0,30,0
4.921875715,455,0,30,0
4.92732811,0,0,30,0
4.941466093,351,0,30,0
4.949382305,78,0,30,0
4.959092379,298,0,30,0
4.966614008,0,0,30,0
4.979923248,529,0,30,0
4.99052,0,0,30,0
4.996051073,395,0,30,0
5.009406805,0,0,30,0
5.021889925,336,0,30,0
5.02388978,0,0,30,0
5.041645527,342,0,30,0
5.04399848,2005,0,30,0
5.059709072,362,0,30,0
5.071799278,64,0,30,0
5.081190109,319,0,30,0
5.090603828,61,0,30,0
5.094093084,292,0,30,0
5.109234333,0,0,30,0
5.121876717,327,0,30,0
5.131474018,0,0,30,0
5.141576767,363,0,30,0
5.142997503,0,0,30,0
5.159824371,390,0,30,0
5.171793938,1899,0,30,0
5.17432642,1991,0,30,0
5.190713406,2522,0,30,0
5.20161581,1968,0,30,0
5.210104227,2263,0,30,0
5.221742868,1714,0,30,0
5.226096869,781,0,30,0
5.241621494,1018,0,30,0
5.248610258,517,0,30,0
5.261006117,770,0,30,0
5.271636009,304,0,30,0
5.280495882,829,0,30,0
5.291370392,433,0,30,0
5.301433563,790,0,30,0
5.311300755,340,0,30,0
5.321778059,699,0,30,0
5.331001997,302,0,30,0
5.340806961,707,0,30,0
5.351549149,1706,0,30,0
5.360747099,779,0,30,0
5.371340752,334,0,30,0
5.381376505,720,0,30,0
5.390839815,317,0,30,0
5.401092529,597,0,30,0
5.411034346,250,0,30,0
5.421765804,517,0,30,0
5.43069768,202,0,30,0
5.440908909,431,0,30,0
5.450056791,174,0,30,0
5.461043119,520,0,30,0
5.471781492,179,0,30,0
5.473984241,477,0,30,0
5.490340471,1642,0,30,0
5.501305342,2115,0,30,0
5.510966778,1807,0,30,0
5.520687342,1888,0,30,0
5.531198502,1568,0,30,0
5.541047573,1278,0,30,0
5.546821356,1158,0,30,0
5.561308146,1232,0,30,0
5.571643353,230,0,30,0
5.58119154,530,0,30,0
5.591551542,73,0,30,0
5.601007462,447,0,30,0
5.608334064,93,0,30,0
5.621809721,426,0,30,0
5.630919933,38,0,30,0
5.639418364,720,0,30,0
5.651554108,48,0,30,0
5.655822277,697,0,30,0
5.671425581,215,0,30,0
5.678762436,530,0,30,0
5.686293364,160,0,30,0
5.700639486,483,0,30,0
5.711021662,153,0,30,0
5.721581697,474,0,30,0
5.726283312,222,0,30,0
5.74128294,496,0,30,0
5.747719765,0,0,30,0
5.755795717,517,0,30,0
5.770727158,185,0,30,0
5.778615952,635,0,30,0
5.791115046,16,0,30,0
5.801640511,627,0,30,0
5.809539795,32,0,30,0
5.817177057,554,0,30,0
5.8248806,144,0,30,0
5.839986324,499,0,30,0
5.847619057,17,0,30,0
5.855645418,473,0,30,0
5.871631861,62,0,30,0
5.881564379,571,0,30,0
5.89078021,47,0,30,0
5.901601791,569,0,30,0
5.908891439,48,0,30,0
5.921430826,551,0,30,0
5.931008339,54,0,30,0
5.940981865,519,0,30,0
5.947578907,80,0,30,0
5.956612587,526,0,30,0
5.971651793,111,0,30,0
5.977920294,528,0,30,0
5.990121603,79,0,30,0
6.001092196,607,0,30,0
6.008749485,0,0,30,0
6.021649837,493,0,30,0
6.030738592,0,0,30,0
6.04120779,560,0,30,0
6.047271967,118,0,30,0
6.058316231,635,0,30,0
6.07145071,144,0,30,0
6.077903986,622,0,30,0
6.090072632,219,0,30,0
6.101547718,535,0,30,0
6.110090971,471,0,30,0
6.121663332,848,0,30,0
6.130617619,576,0,30,0
6.140328884,1111,0,30,0
6.150856972,657,0,30,0
6.160478592,1019,0,30,0
6.171661615,605,0,30,0
6.177620173,994,0,30,0
6.19110465,520,0,30,0
6.201107264,879,0,30,0
6.2086761,357,0,30,0
6.221887589,774,0,30,0
6.230946779,322,0,30,0
6.24168396,723,0,30,0
6.245925426,373,0,30,0
6.257335901,727,0,30,0
6.27152133,364,0,30,0
6.277274132,777,0,30,0
6.291115284,370,0,30,0
6.301506996,1015,0,30,0
6.307541847,311,0,30,0
6.321972609,871,0,30,0
6.331445217,554,0,30,0
6.340764046,1013,0,30,0
6.351406336,411,0,30,0
6.360954762,1054,0,30,0
6.371539593,389,0,30,0
6.38154912,915,0,30,0
6.390967846,367,0,30,0
6.399999619,888,0,30,0
6.407232523,327,0,30,0
6.421814203,854,0,30,0
6.431058645,359,0,30,0
6.439587116,880,0,30,0
6.447635889,291,0,30,0
6.455915689,848,0,30,0
6.471622944,304,0,30,0
6.477294683,784,0,30,0
6.48810339,321,0,30,0
6.501352072,845,0,30,0
6.510976553,288,0,30,0
6.522152424,768,0,30,0
6.531318665,250,0,30,0
6.540697813,816,0,30,0
6.549533606,261,0,30,0
6.560741901,781,0,30,0
6.571648121,260,0,30,0
6.580573797,822,0,30,0
6.591474056,267,0,30,0
6.601317883,816,0,30,0
6.611538172,273,0,30,0
6.621381283,850,0,30,0
6.630860329,256,0,30,0
6.641414642,912,0,30,0
6.651859999,304,0,30,0
6.660395384,896,0,30,0
6.671537161,343,0,30,0
6.681460142,930,0,30,0
6.691030502,823,0,30,0
6.697244883,1414,0,30,0
6.710574627,860,0,30,0
6.721392632,1340,0,30,0
6.730435371,1033,0,30,0
6.740842342,1441,0,30,0
6.748349905,983,0,30,0
6.760961533,1586,0,30,0
6.771488667,1040,0,30,0
6.781306028,1391,0,30,0
6.79051137,983,0,30,0
6.801318169,1168,0,30,0
6.810435057,911,0,30,0
6.821329594,1114,0,30,0
6.830424786,803,0,30,0
6.840661526,1019,0,30,0
6.848473787,809,0,30,0
6.861053705,1071,0,30,0
6.871469498,755,0,30,0
6.880710125,878,0,30,0
6.891156435,726,0,30,0
6.901343346,993,0,30,0
6.911177874,722,0,30,0
6.921667337,1072,0,30,0
6.930734873,752,0,30,0
6.940860033,1989,0,30,0
6.951436043,1071,0,30,0
6.959856987,2186,0,30,0
6.969510078,1313,0,30,0
6.981060028,1856,0,30,0
6.989966869,1077,0,30,0
6.999670029,2099,0,30,0
7.010385275,784,0,30,0
7.016857624,532,0,30,0
7.030205488,1467,0,30,0
7.039001942,1979,0,30,0
7.047375679,1009,0,30,0
7.060066462,1379,0,30,0
7.06938076,919,0,30,0
7.079888344,1430,0,30,0
7.087901354,443,0,30,0
7.099585533,994,0,30,0
7.110578299,502,0,30,0
7.115763664,1174,0,30,0
7.130082846,463,0,30,0
7.140349388,1191,0,30,0
7.150891304,769,0,30,0
7.159907818,1232,0,30,0
7.171466112,771,0,30,0
7.180335045,1746,0,30,0
7.189436197,1424,0,30,0
7.198778629,0,0,30,0
7.205407143,1521,0,30,0
7.236293554,0,0,30,0
7.237056494,1577,0,30,0
7.239552736,0,0,30,0
7.249877453,1288,0,30,0
7.261309147,0,0,30,0
7.27137351,946,0,30,0
7.279659271,0,0,30,0
7.290075779,416,0,30,0
7.301332474,247,0,30,0
7.309664488,605,0,30,0
7.31506443,759,0,30,0
7.330656528,871,0,30,0
7.34017539,691,0,30,0
7.347307444,807,0,30,0
7.36019969,213,0,30,0
7.368935823,876,0,30,0
7.379496336,1808,0,30,0
7.390075445,1381,0,30,0
7.399961472,1451,0,30,0
7.404502392,1102,0,30,0
7.41984868,1279,0,30,0
7.430373669,536,0,30,0
7.440145254,1285,0,30,0
7.446559191,809,0,30,0
7.45545125,1215,0,30,0
7.466506958,1600,0,30,0
7.479849815,1297,0,30,0
7.487801075,1172,0,30,0
7.50041151,1309,0,30,0
7.510053635,1170,0,30,0
7.512272835,1415,0,30,0
7.530110121,1161,0,30,0
7.540006638,1521,0,30,0
7.549991608,1308,0,30,0
7.55973196,1747,0,30,0
7.56647563,1253,0,30,0
7.579700232,1674,0,30,0
7.589944601,1133,0,30,0
7.600440741,1589,0,30,0
7.61004591,1136,0,30,0
7.620131493,1399,0,30,0
7.629748106,1216,0,30,0
7.639954805,1343,0,30,0
7.649718285,1161,0,30,0
7.660070896,1357,0,30,0
7.666146755,1232,0,30,0
7.679998398,1334,0,30,0
7.69026041,1210,0,30,0
7.69923687,1467,0,30,0
7.709892273,1424,0,30,0
7.713983059,1333,0,30,0
7.729524374,1262,0,30,0
7.73906064,1318,0,30,0
7.74811697,1514,0,30,0
7.760318756,1465,0,30,0
7.769707441,1534,0,30,0
7.77661252,1157,0,30,0
7.789669514,1792,0,30,0
7.798823833,1234,0,30,0
7.809693575,1977,0,30,0
7.819834471,1298,0,30,0
7.829272032,2030,0,30,0
7.839835882,1196,0,30,0
7.8504529,2047,0,30,0
7.859610558,1296,0,30,0
7.865907192,2113,0,30,0
7.880364656,1227,0,30,0
7.890039444,2127,0,30,0
7.896884918,1426,0,30,0
7.910096169,2127,0,30,0
7.914968491,1265,0,30,0
7.92968154,2119,0,30,0
7.940359592,1291,0,30,0
7.946557045,2125,0,30,0
7.959375143,1318,0,30,0
7.966770649,2112,0,30,0
7.973296404,1264,0,30,0
7.98961401,2197,0,30,0
7.998083115,1250,0,30,0
8.007336378,2113,0,30,0
8.01865077,1297,0,30,0
8.030367613,2123,0,30,0
8.040205717,1399,0,30,0
8.049569368,2063,0,30,0
8.060266733,1271,0,30,0
8.067663908,2046,0,30,0
8.079600811,1341,0,30,0
8.089921713,2087,0,30,0
8.096789598,1271,0,30,0
8.109804392,1996,0,30,0
8.113473177,1183,0,30,0
8.129619122,4095,0,30,0
8.139885426,998,0,30,0
8.149687052,4095,0,30,0
8.16027832,656,0,30,0
8.166875362,2071,0,30,0
8.179997206,949,0,30,0
8.19004488,1241,0,30,0
8.197556257,1158,0,30,0
8.209777594,1328,0,30,0
8.213794231,1216,0,30,0
8.230062723,1381,0,30,0
8.237704039,1296,0,30,0
8.250237226,1434,0,30,0
8.259961605,1313,0,30,0
8.268323421,1325,0,30,0
8.280552387,1315,0,30,0
8.287680626,1412,0,30,0
8.299627304,1462,0,30,0
8.309860468,1328,0,30,0
8.31386447,1274,0,30,0
8.329402208,831,0,30,0
8.339829922,1277,0,30,0
8.349644184,1073,0,30,0
8.360272646,1214,0,30,0
8.365012169,839,0,30,0
8.380322933,1286,0,30,0
8.388833761,635,0,30,0
8.400341272,1142,0,30,0
8.409407139,569,0,30,0
8.414218426,1181,0,30,0
8.430011749,474,0,30,0
8.438586473,1174,0,30,0
8.450296879,400,0,30,0
8.460295677,1616,0,30,0
8.467988491,1293,0,30,0
8.48014307,1522,0,30,0
8.489915848,350,0,30,0
8.497047663,1360,0,30,0
8.510117292,400,0,30,0
8.516409636,1420,0,30,0
8.530335903,517,0,30,0
8.539787531,1619,0,30,0
8.546215057,531,0,30,0
8.559849262,1623,0,30,0
8.566124201,610,0,30,0
8.580071449,1719,0,30,0
8.587597609,788,0,30,0
8.597745657,1658,0,30,0
8.609500647,810,0,30,0
8.615027905,1566,0,30,0
8.630037546,816,0,30,0
8.639468908,1507,0,30,0
8.650146008,1037,0,30,0
8.659878492,691,0,30,0
8.669704914,830,0,30,0
8.679720163,511,0,30,0
8.689516068,1269,0,30,0
8.699192286,465,0,30,0
8.710135937,1362,0,30,0
8.720281839,446,0,30,0
8.73020792,1307,0,30,0
8.740091801,1143,0,30,0
8.746835947,1616,0,30,0
8.760287285,426,0,30,0
8.766803741,1474,0,30,0
8.77980876,1759,0,30,0
8.789598465,1228,0,30,0
8.800220251,1458,0,30,0
8.810096741,1011,0,30,0
8.814443111,1075,0,30,0
8.830400705,931,0,30,0
8.840342283,1211,0,30,0
8.847436666,977,0,30,0
8.860207081,1565,0,30,0
8.865619659,771,0,30,0
8.880128384,1310,0,30,0
8.890141249,848,0,30,0
8.899103403,946,0,30,0
8.909457922,830,0,30,0
8.913863897,978,0,30,0
8.930122852,855,0,30,0
8.939662457,919,0,30,0
8.946245909,837,0,30,0
8.95960474,1342,0,30,0
8.962966681,852,0,30,0
8.980476856,1418,0,30,0
8.989839077,683,0,30,0
8.99733305,1398,0,30,0
9.009475708,1015,0,30,0
9.013911486,1258,0,30,0
9.029493809,1149,0,30,0
9.03984952,1289,0,30,0
9.046101332,1200,0,30,0
9.059815407,1204,0,30,0
9.062981367,1298,0,30,0
9.080438375,1179,0,30,0
9.08751893,1490,0,30,0
9.100457907,1168,0,30,0
9.109982729,1413,0,30,0
9.12025094,1411,0,30,0
9.129538774,1075,0,30,0
9.140258312,1184,0,30,0
9.150250196,864,0,30,0
9.160171032,1162,0,30,0
9.16584444,1706,0,30,0
9.180272341,1136,0,30,0
9.190073252,1899,0,30,0
9.198767424,1123,0,30,0
9.209651709,2062,0,30,0
9.218752146,1111,0,30,0
9.230283976,2439,0,30,0
9.239794493,1113,0,30,0
9.249971628,3103,0,30,0
9.259946585,1066,0,30,0
9.263351917,0,0,30,0
9.280009508,0,0,30,0
9.286383867,0,0,30,0
9.29940176,0,0,30,0
9.309501886,2446,0,30,0
9.319955111,43,0,30,0
9.329919338,0,0,30,0
9.340215921,0,0,30,0
9.348846912,779,0,30,0
9.360479116,96,0,30,0
9.363616467,0,0,30,0
9.379575253,0,0,30,0
9.389768124,193,0,30,0
9.398321629,8,0,30,0
9.409378529,1394,0,30,0
9.415212393,145,0,30,0
9.430323839,0,0,30,0
9.440353632,0,0,30,0
9.447513342,677,0,30,0
9.459641457,81,0,30,0
9.464499712,0,0,30,0
9.479687214,0,0,30,0
9.48968935,158,0,30,0
9.499906063,490,0,30,0
9.510145903,3067,0,30,0
9.519342422,656,0,30,0
9.52959609,4095,0,30,0
9.539597273,533,0,30,0
9.548745632,4095,0,30,0
9.559568405,511,0,30,0
9.566028833,4095,0,30,0
9.580416918,704,0,30,0
9.589535236,4095,0,30,0
9.60009861,850,0,30,0
9.609950304,4095,0,30,0
9.616499186,1216,0,30,0
9.629733324,3241,0,30,0
9.639405489,1449,0,30,0
9.650450706,2766,0,30,0
9.660163879,1535,0,30,0
9.666245222,0,0,30,0
9.679626226,1603,0,30,0
9.689413548,0,0,30,0
9.69742775,1084,0,30,0
9.710137606,0,0,30,0
9.719611645,0,0,30,0
9.723986626,0,0,30,0
9.739354849,2615,0,30,0
9.749359846,0,0,30,0
9.759837151,2639,0,30,0
9.765480757,0,0,30,0
9.779645205,2925,0,30,0
9.790335655,0,0,30,0
9.800055265,2897,0,30,0
9.810194016,0,0,30,0
9.815812349,2887,0,30,0
9.830351353,0,0,30,0
9.839613199,2874,0,30,0
9.847707748,0,0,30,0
9.856479883,0,0,30,0
9.86294651,1438,0,30,0
9.878158569,2950,0,30,0
9.890307426,1757,0,30,0
9.898308039,2864,0,30,0
9.910251379,2421,0,30,0
9.919765234,2929,0,30,0
9.92372942,29,0,30,0
9.940312624,2672,0,30,0
9.950312853,2,0,30,0
9.970668316,2609,0,30,0
9.970668316,0,0,30,0
9.978965521,2740,0,30,0
9.990040541,0,0,30,0
10.00057197,2627,0,30,0
10.0095191,0,0,30,0
10.01582718,2863,0,30,0
10.0302844,0,0,30,0
10.03953481,2862,0,30,0
10.04855776,0,0,30,0
10.05568266,2864,0,30,0
10.06369805,0,0,30,0
10.07717466,2892,0,30,0
10.08958244,2539,0,30,0
10.0928483,2586,0,30,0
10.10792375,1742,0,30,0
10.11596513,2690,0,30,0
10.12380743,1656,0,30,0
10.13926029,2800,0,30,0
10.14966226,1712,0,30,0
10.1597333,2761,0,30,0
10.16977119,1705,0,30,0
10.1798594,2811,0,30,0
10.18959093,0,0,30,0
10.20018864,2948,0,30,0
10.2099905,0,0,30,0
10.21440434,2557,0,30,0
10.22924471,2507,0,30,0
10.23974729,1413,0,30,0
10.24700284,1737,0,30,0
10.2594173,1168,0,30,0
10.26356125,1525,0,30,0
10.27916455,1148,0,30,0
10.28940463,1444,0,30,0
10.30030966,1243,0,30,0
10.30773354,0,0,30,0
10.31695294,1234,0,30,0
10.32428622,0,0,30,0
10.34023499,939,0,30,0
10.34767652,0,0,30,0
10.35928893,16,0,30,0
10.37023616,0,0,30,0
10.37982893,2685,0,30,0
10.39011455,0,0,30,0
10.39956379,2929,0,30,0
10.41004109,0,0,30,0
10.41949916,2717,0,30,0
10.43015432,2133,0,30,0
10.43942976,2906,0,30,0
10.44743752,0,0,30,0
10.45680881,2576,0,30,0
10.46485925,0,0,30,0
10.48023582,0,0,30,0
10.48946857,0,0,30,0
10.4999733,2433,0,30,0
10.50715566,0,0,30,0
10.51626205,0,0,30,0
10.52180409,0,0,30,0
10.54033113,0,0,30,0
10.54833961,0,0,30,0
10.55463576,2868,0,30,0
10.56860542,4,0,30,0
10.58017755,2845,0,30,0
10.58942389,19,0,30,0
10.59975839,2880,0,30,0
10.60702562,0,0,30,0
10.61621499,2899,0,30,0
10.62247849,0,0,30,0
10.63888097,1253,0,30,0
10.64979434,2427,0,30,0
10.65566587,492,0,30,0
10.66367412,2087,0,30,0
10.6764214,587,0,30,0
10.69024706,1763,0,30,0
10.6982522,1106,0,30,0
10.70683837,1959,0,30,0
10.71605992,1136,0,30,0
10.7225256,2141,0,30,0
10.73893929,1196,0,30,0
10.74695849,2309,0,30,0
10.76026821,1179,0,30,0
10.76827312,2149,0,30,0
10.78004408,1194,0,30,0
10.7903142,2065,0,30,0
10.80035758,1111,0,30,0
10.80635285,2123,0,30,0
10.81440568,604,0,30,0
10.82263136,1840,0,30,0
10.83911204,672,0,30,0
10.84971642,1874,0,30,0
10.85709667,586,0,30,0
10.86726451,1641,0,30,0
10.87628365,794,0,30,0
10.89023066,1328,0,30,0
10.8912282,672,0,30,0
10.90508556,1296,0,30,0
10.92027187,577,0,30,0
10.92072058,1294,0,30,0
10.93909597,875,0,30,0
10.95027161,1264,0,30,0
10.95591807,837,0,30,0
10.97024536,1425,0,30,0
10.97582221,819,0,30,0
10.98994303,1290,0,30,0
10.99887371,795,0,30,0
11.00663233,1427,0,30,0
11.0156579,841,0,30,0
11.02428126,1451,0,30,0
11.03925729,674,0,30,0
11.05027151,1283,0,30,0
11.05588317,930,0,30,0
11.07049847,1317,0,30,0
11.07249546,714,0,30,0
11.08918977,1291,0,30,0
11.09987187,1306,0,30,0
11.10965586,1290,0,30,0
11.11519694,1127,0,30,0
11.12357211,1251,0,30,0
11.13922787,957,0,30,0
11.14587617,1231,0,30,0
11.15484238,726,0,30,0
11.1615088,1069,0,30,0
11.17255759,469,0,30,0
11.18919635,947,0,30,0
11.19971371,241,0,30,0
11.20965528,1607,0,30,0
11.22041988,2353,0,30,0
11.23000646,1168,0,30,0
11.23963857,717,0,30,0
11.24843073,1290,0,30,0
11.25997472,1186,0,30,0
11.27052712,1283,0,30,0
11.27962828,1127,0,30,0
11.29025412,1267,0,30,0
11.29948068,1091,0,30,0
11.30989552,1265,0,30,0
11.32059002,825,0,30,0
11.32950759,1232,0,30,0
11.34020925,775,0,30,0
11.34981155,1242,0,30,0
11.36004066,1287,0,30,0
11.37043595,1456,0,30,0
11.37996101,994,0,30,0
11.39070153,1791,0,30,0
11.40004945,939,0,30,0
11.41024637,1697,0,30,0
11.42053366,1005,0,30,0
11.42996812,1406,0,30,0
11.43978167,1008,0,30,0
11.44998002,1244,0,30,0
11.4601624,998,0,30,0
11.47059798,1417,0,30,0
11.48039126,965,0,30,0
11.49035454,1279,0,30,0
11.49719119,1036,0,30,0
11.50997734,1296,0,30,0
11.52057552,996,0,30,0
11.52982879,1291,0,30,0
11.54028559,1051,0,30,0
11.54930758,1255,0,30,0
11.55951047,1255,0,30,0
11.5705533,1412,0,30,0
11.57972169,1049,0,30,0
11.58998513,1373,0,30,0
11.59954906,1042,0,30,0
11.60948181,1264,0,30,0
11.61978292,1035,0,30,0
11.62967896,1550,0,30,0
11.64027667,1237,0,30,0
11.65025997,1551,0,30,0
11.66036868,993,0,30,0
11.67051339,1452,0,30,0
11.68008828,1005,0,30,0
11.68983984,1527,0,30,0
11.69877815,994,0,30,0
11.70982146,1377,0,30,0
11.72054195,865,0,30,0
11.73028874,1210,0,30,0
11.74016953,900,0,30,0
11.75031114,1172,0,30,0
11.76027608,2453,0,30,0
11.77049994,2320,0,30,0
11.77992606,1235,0,30,0
11.78995013,2336,0,30,0
11.80044985,1280,0,30,0
11.81028724,2343,0,30,0
11.82050109,265,0,30,0
11.83013678,59,0,30,0
11.84005809,132,0,30,0
11.85051179,1462,0,30,0
11.85993361,2878,0,30,0
11.87049747,1759,0,30,0
11.87963367,2781,0,30,0
11.89035869,2110,0,30,0
11.89811015,2559,0,30,0
11.9098289,2306,0,30,0
11.92049456,2368,0,30,0
11.92963552,2300,0,30,0
11.94018245,2194,0,30,0
11.94973493,2316,0,30,0
11.95957971,1293,0,30,0
11.97045851,2318,0,30,0
11.98021269,1099,0,30,0
11.99051332,1591,0,30,0
12.00041318,417,0,30,0
12.01048589,1616,0,30,0
12.02036071,1089,0,30,0
12.0303061,1616,0,30,0
12.0403707,2506,0,30,0
12.04880667,1661,0,30,0
12.05993199,2374,0,30,0
12.07044816,1670,0,30,0
12.07467985,2338,0,30,0
12.09013581,1811,0,30,0
12.0978117,2384,0,30,0
12.10744905,2223,0,30,0
12.12043929,1374,0,30,0
12.12967515,2130,0,30,0
12.14015961,1900,0,30,0
12.15025926,2250,0,30,0
12.1595602,2432,0,30,0
12.17037439,2323,0,30,0
12.18024254,2325,0,30,0
12.19027853,2259,0,30,0
12.19820619,2416,0,30,0
12.20442414,2247,0,30,0
12.22032952,2439,0,30,0
12.22985673,2178,0,30,0
12.24001765,2624,0,30,0
12.25061226,2169,0,30,0
12.25955606,2657,0,30,0
12.27036452,2293,0,30,0
12.28034091,2656,0,30,0
12.29001427,1927,0,30,0
12.29810023,2736,0,30,0
12.30645013,1722,0,30,0
12.32021284,2708,0,30,0
12.32201672,1485,0,30,0
12.33971024,2814,0,30,0
12.35037327,114,0,30,0
12.35786176,2160,0,30,0
12.37041879,98,0,30,0
12.37399316,0,0,30,0
12.38873458,136,0,30,0
12.40059543,0,0,30,0
12.40568423,143,0,30,0
12.42044473,0,0,30,0
12.42810678,129,0,30,0
12.43981171,0,0,30,0
12.45015955,116,0,30,0
12.45869541,0,0,30,0
12.47044802,122,0,30,0
12.47948337,2330,0,30,0
12.4893527,1658,0,30,0
12.49888682,2710,0,30,0
12.5053575,1647,0,30,0
12.52049327,1171,0,30,0
12.52782059,2263,0,30,0
12.53792357,1743,0,30,0
12.54988241,2293,0,30,0
12.55869865,2368,0,30,0
12.57056594,2256,0,30,0
12.57962418,2366,0,30,0
12.59001946,2091,0,30,0
12.59826231,1008,0,30,0
12.60983896,1922,0,30,0
12.62031746,478,0,30,0
12.63005638,1853,0,30,0
12.64001775,256,0,30,0
12.6504879,1840,0,30,0
12.65945721,2768,0,30,0
12.67033434,2043,0,30,0
12.67942214,2831,0,30,0
12.68682456,1680,0,30,0
12.70031261,2723,0,30,0
12.70392966,2030,0,30,0
12.72027063,2750,0,30,0
12.73017287,2368,0,30,0
12.73998833,2637,0,30,0
12.75041008,2355,0,30,0
12.76027226,2626,0,30,0
12.77030396,2366,0,30,0
12.78027201,2811,0,30,0
12.78997803,2374,0,30,0
12.80040359,2686,0,30,0
12.81008244,1743,0,30,0
12.82025981,2687,0,30,0
12.82934856,1415,0,30,0
12.84026527,2577,0,30,0
12.84955978,165,0,30,0
12.8603754,2672,0,30,0
12.87026787,2145,0,30,0
12.88007879,2645,0,30,0
12.89013314,2335,0,30,0
12.90005064,1971,0,30,0
12.90852928,243,0,30,0
12.92014885,0,0,30,0
12.93036461,189,0,30,0
12.94002724,0,0,30,0
12.95015264,121,0,30,0
12.95788097,0,0,30,0
12.97014832,30,0,30,0
12.97984934,0,0,30,0
12.98902488,60,0,30,0
12.99726558,0,0,30,0
13.00611258,53,0,30,0
13.02016973,0,0,30,0
13.03059196,0,0,30,0
13.0399065,0,0,30,0
13.05028057,0,0,30,0
13.05972219,0,0,30,0
13.07026505,0,0,30,0
13.07966781,0,0,30,0
13.08953285,28,0,30,0
13.09997535,0,0,30,0
13.10978198,0,0,30,0
13.12025905,0,0,30,0
13.12955737,0,0,30,0
13.14023256,0,0,30,0
13.1498189,91,0,30,0
13.16018653,0,0,30,0
13.17025995,0,0,30,0
13.17960668,0,0,30,0
13.18765092,0,0,30,0
13.19602799,0,0,30,0
13.21016431,0,0,30,0
13.22048402,0,0,30,0
13.2264967,0,0,30,0
13.23972154,0,0,30,0
13.24991655,0,0,30,0
13.25580907,0,0,30,0
13.27015615,89,0,30,0
13.27287436,0,0,30,0
13.28797388,167,0,30,0
13.29601884,0,0,30,0
13.30902696,144,0,30,0
13.32020354,0,0,30,0
13.32953358,191,0,30,0
13.33966422,0,0,30,0
13.34972954,178,0,30,0
13.3560257,2867,0,30,0
13.3701179,165,0,30,0
13.38041949,0,0,30,0
13.38760448,178,0,30,0
13.39764762,2189,0,30,0
13.40983438,154,0,30,0
13.41852784,2365,0,30,0
13.42977476,144,0,30,0
13.43385625,0,0,30,0
13.44945407,108,0,30,0
13.45987749,0,0,30,0
13.47038889,112,0,30,0
13.47997308,0,0,30,0
13.48991299,129,0,30,0
13.49843907,0,0,30,0
13.50976992,188,0,30,0
13.52065706,0,0,30,0
13.52427697,101,0,30,0
13.54024076,0,0,30,0
13.55011845,2381,0,30,0
13.56064224,0,0,30,0
13.56997752,86,0,30,0
13.57989192,0,0,30,0
13.59020352,1366,0,30,0
13.59631371,0,0,30,0
13.60983896,195,0,30,0
13.62006807,0,0,30,0
13.62943697,0,0,30,0
13.63992023,0,0,30,0
13.64892364,221,0,30,0
13.66058254,2206,0,30,0
13.67014551,700,0,30,0
13.68050098,2618,0,30,0
13.68966222,1405,0,30,0
13.69700146,2490,0,30,0
13.70979714,1363,0,30,0
13.72009897,2767,0,30,0
13.72969365,136,0,30,0
13.74003935,2685,0,30,0
13.74971747,180,0,30,0
13.759619,0,0,30,0
13.77010322,197,0,30,0
13.78057408,0,0,30,0
13.7896502,123,0,30,0
13.79742908,0,0,30,0
13.81033492,143,0,30,0
13.82012391,0,0,30,0
13.8287909,106,0,30,0
13.84026575,0,0,30,0
13.85050893,208,0,30,0
13.8594048,0,0,30,0
13.87012243,155,0,30,0
13.88038397,2579,0,30,0
13.89010477,67,0,30,0
13.89544797,2672,0,30,0
13.91037488,180,0,30,0
13.92023325,2623,0,30,0
13.928864,189,0,30,0
13.94018292,2749,0,30,0
13.94964528,201,0,30,0
13.95937037,2797,0,30,0
13.96984315,206,0,30,0
13.97961593,2774,0,30,0
13.98967552,202,0,30,0
14.00032449,2768,0,30,0
14.0099926,176,0,30,0
14.01997733,2802,0,30,0
14.03012776,174,0,30,0
14.04042649,2688,0,30,0
14.04804134,163,0,30,0
14.06014776,1115,0,30,0
14.06461596,123,0,30,0
14.08025002,246,0,30,0
14.0897367,121,0,30,0
14.09458494,0,0,30,0
14.10974884,123,0,30,0
14.12026668,0,0,30,0
14.13030005,112,0,30,0
14.13980079,0,0,30,0
14.14824533,117,0,30,0
14.16005206,0,0,30,0
14.16689301,123,0,30,0
14.17877936,0,0,30,0
14.18981838,144,0,30,0
14.19481206,0,0,30,0
14.2097919,131,0,30,0
14.21988153,0,0,30,0
14.22960687,134,0,30,0
14.24001265,0,0,30,0
14.24721789,152,0,30,0
14.26010776,0,0,30,0
14.27020335,225,0,30,0
14.27901673,0,0,30,0
14.28965235,211,0,30,0
14.3004086,0,0,30,0
14.30991077,165,0,30,0
14.32012916,0,0,30,0
14.33028841,134,0,30,0
14.34024477,0,0,30,0
14.34907222,122,0,30,0
14.36007714,0,0,30,0
14.36978984,116,0,30,0
14.37942266,0,0,30,0
14.38992286,25,0,30,0
14.39681411,0,0,30,0
14.41009331,0,0,30,0
14.42008853,0,0,30,0
14.43014169,48,0,30,0
14.43983412,0,0,30,0
14.44634151,61,0,30,0
14.4603591,0,0,30,0
14.4698019,157,0,30,0
14.47917032,0,0,30,0
14.48981237,144,0,30,0
14.49499512,0,0,30,0
14.50995278,164,0,30,0
14.52008367,0,0,30,0
14.52995634,154,0,30,0
14.53944278,0,0,30,0
14.54473352,157,0,30,0
14.5600791,0,0,30,0
14.57035947,140,0,30,0
14.57981801,0,0,30,0
14.5889864,146,0,30,0
14.59989381,0,0,30,0
14.60984516,144,0,30,0
14.62003231,0,0,30,0
14.62985539,111,0,30,0
14.64018559,0,0,30,0
14.64793015,21,0,30,0
14.66031814,0,0,30,0
14.6707356,15,0,30,0
14.68033814,0,0,30,0
14.69024754,15,0,30,0
14.69992495,0,0,30,0
14.70978832,30,0,30,0
14.72004652,0,0,30,0
14.730515,54,0,30,0
14.73952413,0,0,30,0
14.74485755,39,0,30,0
14.75971723,0,0,30,0
14.77012587,48,0,30,0
14.77967644,0,0,30,0
14.79029703,113,0,30,0
14.8000803,0,0,30,0
14.81020665,141,0,30,0
14.82006145,0,0,30,0
14.83043766,182,0,30,0
14.84028459,2431,0,30,0
14.84672236,145,0,30,0
14.85959411,2343,0,30,0
14.87004828,151,0,30,0
14.8782773,2176,0,30,0
14.88965201,160,0,30,0
14.89895844,0,0,30,0
14.91024232,190,0,30,0
14.92004204,0,0,30,0
14.92910838,194,0,30,0
14.93956709,0,0,30,0
14.94703889,186,0,30,0
14.9602294,0,0,30,0
14.97003007,187,0,30,0
14.97975659,85,0,30,0
14.99002743,1947,0,30,0
14.99518013,96,0,30,0
15.00924468,0,0,30,0
15.02029324,66,0,30,0
15.03056812,0,0,30,0
15.0395875,80,0,30,0
15.04597759,0,0,30,0
15.06009459,73,0,30,0
15.06208038,0,0,30,0
15.07843256,97,0,30,0
15.0900774,0,0,30,0
15.09377408,82,0,30,0
15.10975575,0,0,30,0
15.12008333,70,0,30,0
15.12931013,0,0,30,0
15.13951969,88,0,30,0
15.1473577,0,0,30,0
15.15958929,111,0,30,0
15.1700449,0,0,30,0
15.1788249,119,0,30,0
15.18939519,0,0,30,0
15.19460082,119,0,30,0
15.20966482,0,0,30,0
15.2199614,123,0,30,0
15.22961473,0,0,30,0
15.24030662,141,0,30,0
15.24877071,0,0,30,0
15.26017857,171,0,30,0
15.27010322,0,0,30,0
15.27987289,128,0,30,0
15.29021239,0,0,30,0
15.29595852,193,0,30,0
15.30935121,0,0,30,0
15.32090092,166,0,30,0
15.32975221,0,0,30,0
15.33979774,162,0,30,0
15.35005522,0,0,30,0
15.35978317,131,0,30,0
15.3699789,0,0,30,0
15.37994552,122,0,30,0
15.39005303,0,0,30,0
15.39974856,153,0,30,0
15.40995312,0,0,30,0
15.42076159,191,0,30,0
15.42981839,0,0,30,0
15.44032717,115,0,30,0
15.44575095,0,0,30,0
15.45988679,0,0,30,0
15.4701395,0,0,30,0
15.48005533,0,0,30,0
15.49005842,0,0,30,0
15.49944305,0,0,30,0
15.51036835,215,0,30,0
15.51987696,0,0,30,0
15.52803016,144,0,30,0
15.54004574,0,0,30,0
15.54385853,74,0,30,0
15.55992699,0,0,30,0
15.57020545,65,0,30,0
15.57875299,0,0,30,0
15.59018016,57,0,30,0
15.59472156,0,0,30,0
15.61035967,62,0,30,0
15.61995888,52,0,30,0
15.62970328,50,0,30,0
15.63628101,257,0,30,0
15.65034842,0,0,30,0
15.65984917,349,0,30,0
15.67061424,0,0,30,0
15.67803621,352,0,30,0
15.68971825,50,0,30,0
15.70046401,503,0,30,0
15.70976591,0,0,30,0
15.72005105,710,0,30,0
15.72955632,1104,0,30,0
15.74046469,240,0,30,0
15.74809551,4095,0,30,0
15.75968766,430,0,30,0
15.77009273,4095,0,30,0
15.77853799,636,0,30,0
15.78986073,4095,0,30,0
15.79916644,752,0,30,0
15.80944347,4095,0,30,0
15.82009315,837,0,30,0
15.83044815,4095,0,30,0
15.84052777,816,0,30,0
15.84700012,4095,0,30,0
15.85826349,925,0,30,0
15.86997199,4095,0,30,0
15.87913847,960,0,30,0
15.88990831,4095,0,30,0
15.89776254,1009,0,30,0
15.90946102,4095,0,30,0
15.92016792,1091,0,30,0
15.93046856,4095,0,30,0
15.9397192,1047,0,30,0
15.94448256,4095,0,30,0
15.96015072,1117,0,30,0
15.97048736,2798,0,30,0
15.97936273,1060,0,30,0
15.99021482,2958,0,30,0
15.99995661,1093,0,30,0
16.01025128,2805,0,30,0
16.02052379,1134,0,30,0
16.03040981,2955,0,30,0
16.03955603,1139,0,30,0
16.05034924,2670,0,30,0
16.05509472,1177,0,30,0
16.07008553,1616,0,30,0
16.07555032,1061,0,30,0
16.08616734,1142,0,30,0
16.10040665,816,0,30,0
16.10901356,806,0,30,0
16.11984968,603,0,30,0
16.13024759,466,0,30,0
16.13940215,1876,0,30,0
16.1458137,1701,0,30,0
16.15991521,993,0,30,0
16.1699903,1344,0,30,0
16.17860413,4095,0,30,0
16.19004846,1385,0,30,0
16.19806671,4095,0,30,0
16.2095542,1599,0,30,0
16.21955967,4095,0,30,0
16.23012567,1711,0,30,0
16.24015284,4095,0,30,0
16.24985313,1744,0,30,0
16.25997472,4095,0,30,0
16.27053618,1621,0,30,0
16.2801621,4095,0,30,0
16.29004622,1588,0,30,0
16.29745793,4095,0,30,0
16.30960703,173,0,30,0
16.31950307,967,0,30,0
16.32828426,4095,0,30,0
16.34029508,3426,0,30,0
16.34390163,4095,0,30,0
16.35962725,4095,0,30,0
16.36949825,4095,0,30,0
16.38023281,4095,0,30,0
16.38997698,4095,0,30,0
16.39708662,4095,0,30,0
16.40610361,4095,0,30,0
16.41975999,4095,0,30,0
16.42281222,4095,0,30,0
16.43750691,4095,0,30,0
16.44551492,4095,0,30,0
16.45359969,4095,0,30,0
16.47022963,4095,0,30,0
16.48040843,4095,0,30,0
16.48999929,4095,0,30,0
16.49760127,4095,0,30,0
16.51031971,4095,0,30,0
16.5196259,4095,0,30,0
16.52838731,4095,0,30,0
16.54025006,4095,0,30,0
16.55048466,4095,0,30,0
16.56040931,4095,0,30,0
16.5703702,4095,0,30,0
16.57502747,815,0,30,0
16.58913541,2798,0,30,0
16.59715152,0,0,30,0
16.60540915,1765,0,30,0
16.62020826,0,0,30,0
16.62910581,1345,0,30,0
16.6406188,0,0,30,0
16.6486249,1185,0,30,0
16.65692067,953,0,30,0
16.67017627,1205,0,30,0
16.67309952,2202,0,30,0
16.68777132,1310,0,30,0
16.69933629,2064,0,30,0
16.70958495,1305,0,30,0
16.72049618,2087,0,30,0
16.73031974,1072,0,30,0
16.73971701,546,0,30,0
16.74623609,489,0,30,0
16.75949669,215,0,30,0
16.76937723,1801,0,30,0
16.77976704,2357,0,30,0
16.78848028,2189,0,30,0
16.79760122,2346,0,30,0
16.81033182,1858,0,30,0
16.82017589,2214,0,30,0
16.828933,1634,0,30,0
16.83800626,1965,0,30,0
16.84979391,1547,0,30,0
16.85974169,1742,0,30,0
16.8703568,1408,0,30,0
16.87384081,1712,0,30,0
16.890172,1477,0,30,0
16.89959717,1734,0,30,0
16.9102366,1132,0,30,0
16.9203887,1660,0,30,0
16.92951155,1564,0,30,0
16.93978858,1823,0,30,0
16.94689322,1309,0,30,0
16.95463967,1616,0,30,0
16.97006607,1828,0,30,0
16.97305989,1835,0,30,0
16.98697591,1778,0,30,0
16.99700761,1823,0,30,0
17.00419974,959,0,30,0
17.02017808,2091,0,30,0
17.02945065,793,0,30,0
17.04075599,2288,0,30,0
17.05083609,499,0,30,0
17.05418873,2328,0,30,0
17.07019186,462,0,30,0
17.07313824,1973,0,30,0
17.08819914,395,0,30,0
17.09991121,2110,0,30,0
17.10342002,479,0,30,0
17.12034321,2291,0,30,0
17.1262517,576,0,30,0
17.13923788,2162,0,30,0
17.15060711,657,0,30,0
17.15792942,2246,0,30,0
17.17014647,651,0,30,0
17.18014121,2334,0,30,0
17.1905942,777,0,30,0
17.19735622,2290,0,30,0
17.20740199,657,0,30,0
17.22037554,167,0,30,0
17.22799373,703,0,30,0
17.23924828,970,0,30,0
17.24927306,731,0,30,0
17.25695109,1329,0,30,0
17.27061915,634,0,30,0
17.27300096,137,0,30,0
17.28958797,694,0,30,0
17.29970503,153,0,30,0
17.30600262,883,0,30,0
17.32034492,125,0,30,0
17.32969689,976,0,30,0
17.34004593,141,0,30,0
17.34203982,1251,0,30,0
17.35689116,151,0,30,0
17.37040067,1140,0,30,0
17.37400556,145,0,30,0
17.3895309,1344,0,30,0
17.39992309,173,0,30,0
17.40593123,1958,0,30,0
17.420542,176,0,30,0
17.42450905,1382,0,30,0
17.43951344,2224,0,30,0
17.4405098,787,0,30,0
17.45732117,2123,0,30,0
17.47030115,1873,0,30,0
17.4717381,1997,0,30,0
17.48852324,1832,0,30,0
17.4958148,1822,0,30,0
17.51038289,1936,0,30,0
17.52050042,1254,0,30,0
17.52657557,1087,0,30,0
17.53737354,1053,0,30,0
17.55017376,831,0,30,0
17.55853486,916,0,30,0
17.57029366,647,0,30,0
17.58029342,809,0,30,0
17.58942652,542,0,30,0
17.60018992,542,0,30,0
17.61036277,411,0,30,0
17.62015557,316,0,30,0
17.63004732,49,0,30,0
17.64017868,1167,0,30,0
17.64925265,2386,0,30,0
17.65986919,279,0,30,0
17.67056298,379,0,30,0
17.68042684,275,0,30,0
17.69037437,147,0,30,0
17.69885159,423,0,30,0
17.71034718,250,0,30,0
17.72106385,412,0,30,0
17.72983956,483,0,30,0
17.7402544,407,0,30,0
17.750036,465,0,30,0
17.75992894,446,0,30,0
17.77046108,347,0,30,0
17.780128,376,0,30,0
17.78732395,240,0,30,0
17.79525161,341,0,30,0
17.81060839,2275,0,30,0
17.82012558,1229,0,30,0
17.82792807,833,0,30,0
17.84019399,1310,0,30,0
17.84949708,1990,0,30,0
17.85519719,993,0,30,0
17.86956048,1947,0,30,0
17.87856889,1360,0,30,0
17.89063835,975,0,30,0
17.89864492,1163,0,30,0
17.90384197,1111,0,30,0
17.91385269,1150,0,30,0
17.92385316,1131,0,30,0
17.93385339,1253,0,30,0
17.94385314,1146,0,30,0
17.95385385,472,0,30,0
17.97026134,192,0,30,0
17.98009133,477,0,30,0
17.99004388,155,0,30,0
17.99807405,463,0,30,0
18.01029825,158,0,30,0
18.01979518,483,0,30,0
18.02555919,51,0,30,0
18.03334451,474,0,30,0
18.05048633,24,0,30,0
18.05969238,522,0,30,0
18.07051563,49,0,30,0
18.07936192,525,0,30,0
18.08991408,49,0,30,0
18.09663987,545,0,30,0
18.10960555,80,0,30,0
18.11912656,560,0,30,0
18.12876344,112,0,30,0
18.1396513,566,0,30,0
18.14877009,170,0,30,0
18.16034627,564,0,30,0
18.17005801,154,0,30,0
18.18048501,592,0,30,0
18.18577361,160,0,30,0
18.20013523,530,0,30,0
18.21009684,186,0,30,0
18.21970272,556,0,30,0
18.2297461,195,0,30,0
18.24007726,544,0,30,0
18.24762583,208,0,30,0
18.26003504,598,0,30,0
18.27023721,220,0,30,0
18.27862549,643,0,30,0
18.28938031,217,0,30,0
18.29538989,656,0,30,0
18.30978203,248,0,30,0
18.31974888,625,0,30,0
18.32784605,242,0,30,0
18.33990312,625,0,30,0
18.35047388,239,0,30,0
18.35990262,640,0,30,0
18.36907029,353,0,30,0
18.38035917,607,0,30,0
18.3901155,190,0,30,0
18.40010238,558,0,30,0
18.40994716,272,0,30,0
18.41939282,459,0,30,0
18.43020439,275,0,30,0
18.43953323,622,0,30,0
18.45013547,221,0,30,0
18.45969129,717,0,30,0
18.46992993,526,0,30,0
18.47990084,848,0,30,0
18.48947406,554,0,30,0
18.49995065,887,0,30,0
18.51035333,606,0,30,0
18.52009988,880,0,30,0
18.53059864,659,0,30,0
18.54003429,858,0,30,0
18.54670429,560,0,30,0
18.55956697,733,0,30,0
18.57031059,459,0,30,0
18.57984209,793,0,30,0
18.58960199,379,0,30,0
18.60065794,916,0,30,0
18.60993624,307,0,30,0
18.62021279,831,0,30,0
18.62998366,466,0,30,0
18.64007044,767,0,30,0
18.64721727,468,0,30,0
18.65992212,899,0,30,0
18.67088056,624,0,30,0
18.68000436,915,0,30,0
18.68974447,714,0,30,0
18.70048046,863,0,30,0
18.7104187,645,0,30,0
18.71909547,871,0,30,0
18.72988892,586,0,30,0
18.74016094,896,0,30,0
18.74794579,582,0,30,0
18.75983763,933,0,30,0
18.77007747,566,0,30,0
18.77913547,926,0,30,0
18.79037714,560,0,30,0
18.80061245,951,0,30,0
18.80381298,366,0,30,0
18.82002664,944,0,30,0
18.82999039,452,0,30,0
18.84015536,962,0,30,0
18.84990597,451,0,30,0
18.86006403,958,0,30,0
18.87042546,452,0,30,0
18.87971044,1002,0,30,0
18.89000154,465,0,30,0
18.89964867,1031,0,30,0
18.90961909,464,0,30,0
18.9203136,1009,0,30,0
18.92967296,502,0,30,0
18.94018698,1056,0,30,0
18.94560266,529,0,30,0
18.95982122,1072,0,30,0
18.97022724,624,0,30,0
18.98001337,1088,0,30,0
18.98782754,557,0,30,0
19.00038886,1152,0,30,0
19.00434589,560,0,30,0
19.01979995,1267,0,30,0
19.02372694,899,0,30,0
19.0390532,1492,0,30,0
19.04788899,1057,0,30,0
19.05321097,1605,0,30,0
19.06999731,1210,0,30,0
19.08679342,1406,0,30,0
19.08952999,1114,0,30,0
19.09188604,1292,0,30,0
19.10961819,1035,0,30,0
19.12010431,1168,0,30,0
19.13064957,944,0,30,0
19.13806105,1090,0,30,0
19.14730406,831,0,30,0
19.16020536,986,0,30,0
19.17039561,830,0,30,0
19.1784153,994,0,30,0
19.18766618,865,0,30,0
19.20038986,1458,0,30,0
19.20697212,816,0,30,0
19.22043514,1516,0,30,0
19.23053193,833,0,30,0
19.23722053,1518,0,30,0
19.24965262,762,0,30,0
19.25989771,1326,0,30,0
19.27033138,681,0,30,0
19.27939439,1293,0,30,0
19.29000163,673,0,30,0
19.3006289,1515,0,30,0
19.31035662,825,0,30,0
19.31999183,1725,0,30,0
19.32997775,1038,0,30,0
19.34033823,1679,0,30,0
19.34812689,976,0,30,0
19.36013246,1602,0,30,0
19.36989927,866,0,30,0
19.37890315,1829,0,30,0
19.39065623,882,0,30,0
19.40005636,1568,0,30,0
19.40916967,1035,0,30,0
19.42033076,1535,0,30,0
19.42985368,1147,0,30,0
19.44001746,1634,0,30,0
19.45013642,1198,0,30,0
19.46001959,1697,0,30,0
19.46961832,1199,0,30,0
19.47987223,1798,0,30,0
19.49036741,1099,0,30,0
19.50043893,1757,0,30,0
19.50641918,1234,0,30,0
19.52074218,1964,0,30,0
19.5307548,1249,0,30,0
19.53634429,1769,0,30,0
19.54652572,1264,0,30,0
19.55371785,1817,0,30,0
19.56980824,1352,0,30,0
19.57876706,1474,0,30,0
19.59017825,1289,0,30,0
19.59818244,1524,0,30,0
19.60662913,1296,0,30,0
19.62006974,910,0,30,0
19.62921,1264,0,30,0
19.64060235,977,0,30,0
19.64860845,1319,0,30,0
19.6538167,877,0,30,0
19.6696527,1279,0,30,0
19.67860174,1313,0,30,0
19.68974257,1179,0,30,0
19.70002866,1311,0,30,0
19.70606756,1648,0,30,0
19.7206533,1217,0,30,0
19.73057055,1343,0,30,0
19.74028707,1325,0,30,0
19.75055194,2027,0,30,0
19.76011825,1331,0,30,0
19.77020907,1787,0,30,0
19.77627158,1144,0,30,0
19.79022408,1392,0,30,0
19.79924607,925,0,30,0
19.81049681,1257,0,30,0
19.82031345,653,0,30,0
19.82178116,1174,0,30,0
19.8388226,464,0,30,0
19.84982157,1647,0,30,0
19.85558891,2250,0,30,0
19.87023115,1705,0,30,0
19.87415218,2071,0,30,0
19.89003372,1503,0,30,0
19.90015006,1203,0,30,0
19.909482,1266,0,30,0
19.92022395,659,0,30,0
19.92122149,1069,0,30,0
19.94001937,523,0,30,0
19.95032382,1631,0,30,0
19.95647359,2171,0,30,0
19.9699645,1450,0,30,0
19.97502255,1398,0,30,0
19.98880935,971,0,30,0
19.99937081,889,0,30,0
20.00643373,947,0,30,0
20.02017283,506,0,30,0
20.02223587,926,0,30,0
20.03873277,560,0,30,0
20.04996943,911,0,30,0
20.06044579,1734,0,30,0
20.07007647,1585,0,30,0
20.07375765,2106,0,30,0
20.09036493,1435,0,30,0
20.10023904,1086,0,30,0
20.10979199,1727,0,30,0
20.12034011,2037,0,30,0
20.12949753,1625,0,30,0
20.13975143,2157,0,30,0
20.14494634,1713,0,30,0
20.16040134,2173,0,30,0
20.17050552,1744,0,30,0
20.17556119,2126,0,30,0
20.19016933,1729,0,30,0
20.19865775,407,0,30,0
20.20999908,1726,0,30,0
20.22049952,530,0,30,0
20.23062992,1758,0,30,0
20.23985314,1885,0,30,0
20.25059557,1714,0,30,0
20.26002574,366,0,30,0
20.26980734,887,0,30,0
20.28018379,481,0,30,0
20.29033756,862,0,30,0
20.30061531,410,0,30,0
20.31007385,926,0,30,0
20.31988025,399,0,30,0
20.32958055,973,0,30,0
20.34016728,416,0,30,0
20.34929204,1010,0,30,0
20.36000371,551,0,30,0
20.36968088,1077,0,30,0
20.38077521,443,0,30,0
20.38991165,1115,0,30,0
20.39827919,481,0,30,0
20.40539265,1457,0,30,0
20.41990018,490,0,30,0
20.42890835,1207,0,30,0
20.43755221,461,0,30,0
20.4455595,834,0,30,0
20.45333195,124,0,30,0
20.46979713,1449,0,30,0
20.48080897,2694,0,30,0
20.48194051,2179,0,30,0
20.49197912,2448,0,30,0
20.50463986,2031,0,30,0
20.51984763,2219,0,30,0
20.5295577,2000,0,30,0
20.53689027,2001,0,30,0
20.54490709,1824,0,30,0
20.55337024,1638,0,30,0
20.5705905,1776,0,30,0
20.5806489,1303,0,30,0
20.58164525,1415,0,30,0
20.5916934,743,0,30,0
20.60169339,1679,0,30,0
20.61273575,502,0,30,0
20.62274718,1824,0,30,0
20.63541341,2032,0,30,0
20.64988279,1681,0,30,0
20.6545825,2285,0,30,0
20.66631317,1241,0,30,0
20.67635703,528,0,30,0
20.69060421,1106,0,30,0
20.70062852,366,0,30,0
20.70647717,1056,0,30,0
20.71987557,544,0,30,0
20.72985387,1531,0,30,0
20.74068379,718,0,30,0
20.74383187,1757,0,30,0
20.75833344,1137,0,30,0
20.7702589,1843,0,30,0
20.77467132,2484,0,30,0
20.79063463,1837,0,30,0
20.79771829,2460,0,30,0
20.80953026,1714,0,30,0
20.82004023,2546,0,30,0
20.82836914,2054,0,30,0
20.84017396,1728,0,30,0
20.85025954,2112,0,30,0
20.85922718,1289,0,30,0
20.87049603,2112,0,30,0
20.87787175,2438,0,30,0
20.88856912,2058,0,30,0
20.89764214,2439,0,30,0
20.91040444,2112,0,30,0
20.91860747,2366,0,30,0
20.92988586,1745,0,30,0
20.9399116,0,0,30,0
20.95034099,1456,0,30,0
20.960042,2589,0,30,0
20.96858335,1705,0,30,0
20.98021698,253,0,30,0
20.99031734,1451,0,30,0
20.9955759,0,0,30,0
21.00988388,1567,0,30,0
21.01961493,0,0,30,0
21.02993846,1182,0,30,0
21.03977799,2510,0,30,0
21.04577875,1387,0,30,0
21.05967546,2655,0,30,0
21.06971526,899,0,30,0
21.07742906,2654,0,30,0
21.08940768,371,0,30,0
21.09755349,0,0,30,0
21.10605478,549,0,30,0
21.12034607,0,0,30,0
21.13037539,378,0,30,0
21.13938928,1239,0,30,0
21.14990163,1998,0,30,0
21.16020894,2464,0,30,0
21.16971278,1899,0,30,0
21.18048024,2182,0,30,0
21.18995953,1584,0,30,0
21.19487858,917,0,30,0
21.2102623,1274,0,30,0
21.219594,651,0,30,0
21.23043966,1072,0,30,0
21.23994446,455,0,30,0
21.24942374,884,0,30,0
21.25978923,304,0,30,0
21.26954389,906,0,30,0
21.28030252,272,0,30,0
21.28953004,923,0,30,0
21.29522109,318,0,30,0
21.3093586,906,0,30,0
21.31975985,368,0,30,0
21.32972026,806,0,30,0
21.34030032,295,0,30,0
21.3495295,665,0,30,0
21.35988259,240,0,30,0
21.36953974,603,0,30,0
21.37991953,198,0,30,0
21.38941288,567,0,30,0
21.39929581,186,0,30,0
21.40946317,549,0,30,0
21.41998696,2,0,30,0
21.42900825,497,0,30,0
21.43951106,0,0,30,0
21.45035505,361,0,30,0
21.45952296,0,0,30,0
21.46961117,485,0,30,0
21.47999692,70,0,30,0
21.48981714,530,0,30,0
21.4964447,130,0,30,0
21.51040816,593,0,30,0
21.51850009,140,0,30,0
21.52908969,635,0,30,0
21.53959823,155,0,30,0
21.54881573,694,0,30,0
21.56022978,81,0,30,0
21.57007837,744,0,30,0
21.57975864,0,0,30,0
21.59000945,769,0,30,0
21.59966111,187,0,30,0
21.61014581,775,0,30,0
21.61950517,214,0,30,0
21.62796474,793,0,30,0
21.64039612,218,0,30,0
21.64885736,783,0,30,0
21.66010213,14,0,30,0
21.66954732,785,0,30,0
21.68017149,256,0,30,0
21.68985009,820,0,30,0
21.69747972,314,0,30,0
21.7078352,844,0,30,0
21.71971798,321,0,30,0
21.72771621,883,0,30,0
21.73971701,338,0,30,0
21.74946308,906,0,30,0
21.75977874,318,0,30,0
21.77067304,951,0,30,0
21.77988839,318,0,30,0
21.79062533,976,0,30,0
21.80079246,338,0,30,0
21.81009102,993,0,30,0
21.82002974,63,0,30,0
21.83043289,1015,0,30,0
21.83682775,383,0,30,0
21.84774828,1101,0,30,0
21.85556054,458,0,30,0
21.87047982,1077,0,30,0
21.88024306,400,0,30,0
21.88692331,1091,0,30,0
21.89582491,94,0,30,0
21.90327525,1061,0,30,0
21.92061019,135,0,30,0
21.92956161,1158,0,30,0
21.93654299,433,0,30,0
21.94668078,1152,0,30,0
21.96050048,476,0,30,0
21.97014642,1037,0,30,0
21.98015952,501,0,30,0
21.9906199,718,0,30,0
21.99862576,96,0,30,0
22.00979042,626,0,30,0
22.01971006,97,0,30,0
22.03019142,1087,0,30,0
22.03886795,576,0,30,0
22.04836416,1168,0,30,0
22.05715752,650,0,30,0
22.07048202,1413,0,30,0
22.07271028,812,0,30,0
22.08842254,1524,0,30,0
22.09844089,930,0,30,0
22.10581923,1435,0,30,0
22.11980677,957,0,30,0
22.12080646,1232,0,30,0
22.14019895,775,0,30,0
22.15036702,1582,0,30,0
22.15593958,441,0,30,0
22.17035174,1585,0,30,0
22.17410207,429,0,30,0
22.19027829,1568,0,30,0
22.20082331,770,0,30,0
22.20924163,1608,0,30,0
22.22083282,906,0,30,0
22.22535086,1651,0,30,0
22.24016666,916,0,30,0
22.24958563,1683,0,30,0
22.25507331,942,0,30,0
22.26961184,1681,0,30,0
22.27160668,900,0,30,0
22.28962207,1686,0,30,0
22.30080986,907,0,30,0
22.31026149,1749,0,30,0
22.31996155,955,0,30,0
22.32570291,1807,0,30,0
22.34017873,963,0,30,0
22.34117889,1822,0,30,0
22.35642934,957,0,30,0
22.36952972,1783,0,30,0
22.3793664,970,0,30,0
22.38861847,1856,0,30,0
22.39465642,937,0,30,0
22.41046858,1800,0,30,0
22.42005134,988,0,30,0
22.4311173,1860,0,30,0
22.44005203,917,0,30,0
22.4503386,1840,0,30,0
22.45591283,865,0,30,0
22.46963048,1877,0,30,0
22.48009372,1023,0,30,0
22.48982072,1869,0,30,0
22.49893451,1111,0,30,0
22.50992632,1850,0,30,0
22.52035069,973,0,30,0
22.53038621,1878,0,30,0
22.54043055,1048,0,30,0
22.54947972,1890,0,30,0
22.56002975,986,0,30,0
22.56890917,1810,0,30,0
22.57998776,1003,0,30,0
22.58939457,1693,0,30,0
22.60005426,1091,0,30,0
22.61036944,1397,0,30,0
22.62023926,1387,0,30,0
22.63037658,701,0,30,0
22.6402061,1165,0,30,0
22.64908028,702,0,30,0
22.65971494,1131,0,30,0
22.66952467,538,0,30,0
22.68021798,1272,0,30,0
22.68956804,2205,0,30,0
22.69912505,1390,0,30,0
22.70993519,2293,0,30,0
22.71943426,1520,0,30,0
22.72986865,2162,0,30,0
22.73954535,1206,0,30,0
22.74872589,867,0,30,0
22.75972772,833,0,30,0
22.76958847,1051,0,30,0
22.77982473,626,0,30,0
22.79051471,1200,0,30,0
22.79405618,1999,0,30,0
22.81050062,1197,0,30,0
22.82025433,1805,0,30,0
22.82471871,1371,0,30,0
22.84050632,1449,0,30,0
22.84999156,1198,0,30,0
22.86036444,1303,0,30,0
22.86969161,1070,0,30,0
22.87961745,731,0,30,0
22.89003229,930,0,30,0
22.89625597,1874,0,30,0
22.90394092,752,0,30,0
22.92039394,1921,0,30,0
22.93013167,592,0,30,0
22.9386797,1961,0,30,0
22.9468472,989,0,30,0
22.95628619,2032,0,30,0
22.9704361,1021,0,30,0
22.97924042,1328,0,30,0
22.98576689,603,0,30,0
22.99380612,1913,0,30,0
23.00270367,638,0,30,0
23.02023697,1679,0,30,0
23.02341604,839,0,30,0
23.03922224,1627,0,30,0
23.04839873,730,0,30,0
23.05518293,1761,0,30,0
23.06996775,1189,0,30,0
23.08032823,1776,0,30,0
23.08576536,1202,0,30,0
23.09341407,1310,0,30,0
23.10887384,1191,0,30,0
23.12044191,1251,0,30,0
23.12428188,1248,0,30,0
23.14056897,880,0,30,0
23.14717746,1609,0,30,0
23.15561199,1299,0,30,0
23.17035341,1427,0,30,0
23.17699146,880,0,30,0
23.18663335,1823,0,30,0
23.19343543,998,0,30,0
23.20859051,1778,0,30,0
23.21990418,979,0,30,0
23.22415233,1205,0,30,0
23.23928118,1223,0,30,0
23.24799442,1298,0,30,0
23.25475407,1344,0,30,0
23.27033997,1326,0,30,0
23.28025007,1237,0,30,0
23.29024529,1762,0,30,0
23.3001287,1487,0,30,0
23.30852246,1616,0,30,0
23.31974411,1995,0,30,0
23.32584286,1759,0,30,0
23.3394556,1218,0,30,0
23.34781265,1495,0,30,0
23.35943627,832,0,30,0
23.37040734,1744,0,30,0
23.38045955,395,0,30,0
23.39018106,1244,0,30,0
23.40068507,186,0,30,0
23.4102397,1089,0,30,0
23.4204073,2005,0,30,0
23.42992067,1703,0,30,0
23.44039822,2213,0,30,0
23.44974875,1788,0,30,0
23.45993257,2038,0,30,0
23.46810937,1651,0,30,0
23.47992587,1697,0,30,0
23.49017167,1575,0,30,0
23.50051451,1471,0,30,0
23.51021719,1357,0,30,0
23.52042389,1213,0,30,0
23.53028464,1374,0,30,0
23.53919435,1307,0,30,0
23.55066037,1311,0,30,0
23.56006098,1168,0,30,0
23.57010221,1338,0,30,0
23.58028722,946,0,30,0
23.59067678,1183,0,30,0
23.59167337,617,0,30,0
23.60315561,1043,0,30,0
23.61881089,1601,0,30,0
23.63024902,954,0,30,0
23.63748693,1063,0,30,0
23.64656925,843,0,30,0
23.65349269,903,0,30,0
23.66900516,801,0,30,0
23.68045378,629,0,30,0
23.69093513,929,0,30,0
23.69408154,542,0,30,0
23.70959902,1744,0,30,0
23.72040963,2006,0,30,0
23.72480226,783,0,30,0
23.74003005,567,0,30,0
23.74975491,949,0,30,0
23.7538166,665,0,30,0
23.77012467,998,0,30,0
23.77833176,805,0,30,0
23.78704429,1223,0,30,0
23.79981446,779,0,30,0
23.80984807,1181,0,30,0
23.82030272,762,0,30,0
23.83048034,1114,0,30,0
23.8399744,757,0,30,0
23.84536338,1120,0,30,0
23.86003542,630,0,30,0
23.87022614,1087,0,30,0
23.88032866,682,0,30,0
23.89009905,1201,0,30,0
23.89845538,623,0,30,0
23.91000462,1296,0,30,0
23.92040682,677,0,30,0
23.92943954,1242,0,30,0
23.9400773,753,0,30,0
23.94483376,1149,0,30,0
23.96070981,612,0,30,0
23.97005105,1357,0,30,0
23.97581506,759,0,30,0
23.9899857,1456,0,30,0
23.99839497,844,0,30,0
24.00960732,1439,0,30,0
24.01808476,909,0,30,0
24.02923822,1293,0,30,0
24.04032993,855,0,30,0
24.0448525,1320,0,30,0
24.06031704,655,0,30,0
24.07033062,1280,0,30,0
24.07928586,752,0,30,0
24.09067416,1307,0,30,0
24.09946632,1676,0,30,0
24.10957861,1319,0,30,0
24.11883545,1552,0,30,0
24.13036966,1261,0,30,0
24.13869214,1595,0,30,0
24.14473081,1299,0,30,0
24.15991592,1580,0,30,0
24.17042661,1129,0,30,0
24.17597628,1293,0,30,0
24.18990421,1549,0,30,0
24.19190001,1084,0,30,0
24.2088716,1152,0,30,0
24.22009778,784,0,30,0
24.23034692,976,0,30,0
24.23937154,433,0,30,0
24.25008726,1264,0,30,0
24.26058531,763,0,30,0
24.27033687,1797,0,30,0
24.27836013,2301,0,30,0
24.2902751,1721,0,30,0
24.29374623,1159,0,30,0
24.30963492,1456,0,30,0
24.3194747,889,0,30,0
24.33017945,1906,0,30,0
24.33576965,459,0,30,0
24.35021877,1968,0,30,0
24.35971785,2098,0,30,0
24.37029314,1524,0,30,0
24.38053894,1338,0,30,0
24.38999915,1942,0,30,0
24.39869738,1771,0,30,0
24.41010737,1952,0,30,0
24.42010856,1478,0,30,0
24.4295218,1899,0,30,0
24.43969345,2001,0,30,0
24.44494867,1786,0,30,0
24.45994496,1776,0,30,0
24.47004175,1728,0,30,0
24.47653937,2095,0,30,0
24.48953819,1881,0,30,0
24.4934504,2159,0,30,0
24.50955105,1977,0,30,0
24.51972771,2019,0,30,0
24.53023887,1982,0,30,0
24.53697705,2097,0,30,0
24.54999518,1952,0,30,0
24.55925345,1666,0,30,0
24.56941819,1973,0,30,0
24.57984233,1298,0,30,0
24.59034228,1950,0,30,0
24.59856582,1953,0,30,0
24.6099894,1971,0,30,0
24.61939931,2239,0,30,0
24.62796211,1917,0,30,0
24.63970041,2287,0,30,0
24.65042591,1939,0,30,0
24.65940428,1907,0,30,0
24.66951466,2018,0,30,0
24.67944121,2209,0,30,0
24.68980312,1973,0,30,0
24.69817662,2244,0,30,0
24.71020794,1983,0,30,0
24.72023845,2290,0,30,0
24.72917509,1977,0,30,0
24.73977089,2320,0,30,0
24.74633718,1954,0,30,0
24.75998974,2282,0,30,0
24.76998758,1988,0,30,0
24.78049207,2354,0,30,0
24.79044485,1491,0,30,0
24.79295516,2353,0,30,0
24.8104291,1311,0,30,0
24.82037282,1572,0,30,0
24.82817245,601,0,30,0
24.83980131,112,0,30,0
24.8438499,559,0,30,0
24.86013031,48,0,30,0
24.87017465,467,0,30,0
24.87746429,119,0,30,0
24.88955188,540,0,30,0
24.89668274,1791,0,30,0
24.9099679,571,0,30,0
24.91978407,2240,0,30,0
24.92985487,543,0,30,0
24.93940783,2288,0,30,0
24.9461422,630,0,30,0
24.9595046,2320,0,30,0
24.96787405,1283,0,30,0
24.98017263,2310,0,30,0
24.98975611,2011,0,30,0
24.99968481,1212,0,30,0
25.00998497,1189,0,30,0
25.01943421,304,0,30,0
25.02990341,1335,0,30,0
25.03956676,2167,0,30,0
25.04951215,834,0,30,0
25.05959749,2187,0,30,0
25.06952882,1183,0,30,0
25.07962728,271,0,30,0
25.08976674,686,0,30,0
25.09975529,446,0,30,0
25.10529923,847,0,30,0
25.11943197,506,0,30,0
25.13013291,825,0,30,0
25.14018893,464,0,30,0
25.15025687,882,0,30,0
25.15987802,449,0,30,0
25.16995549,795,0,30,0
25.1795361,371,0,30,0
25.18634772,722,0,30,0
25.19634867,336,0,30,0
25.21001577,784,0,30,0
25.21871805,304,0,30,0
25.22724605,966,0,30,0
25.240206,276,0,30,0
25.25032043,942,0,30,0
25.25284076,371,0,30,0
25.2696414,835,0,30,0
25.27968764,419,0,30,0
25.28893042,811,0,30,0
25.29798102,307,0,30,0
25.30456781,971,0,30,0
25.31885743,306,0,30,0
25.32766938,922,0,30,0
25.33683681,339,0,30,0
25.34577274,870,0,30,0
25.35285974,311,0,30,0
25.37002373,869,0,30,0
25.37961864,409,0,30,0
25.387254,801,0,30,0
25.40008545,451,0,30,0
25.40697503,825,0,30,0
25.41988254,464,0,30,0
25.4274776,926,0,30,0
25.43653536,459,0,30,0
25.44971085,912,0,30,0
25.45966196,486,0,30,0
25.46993899,800,0,30,0
25.47370577,507,0,30,0
25.48988199,836,0,30,0
25.49669766,507,0,30,0
25.51055169,841,0,30,0
25.5202961,528,0,30,0
25.52770162,899,0,30,0
25.54009318,545,0,30,0
25.5506649,939,0,30,0
25.56024289,661,0,30,0
25.56969714,1446,0,30,0
25.57628298,1978,0,30,0
25.58993077,1507,0,30,0
25.5966537,1380,0,30,0
25.60431123,1392,0,30,0
25.62031436,584,0,30,0
25.62734699,1449,0,30,0
25.63622475,574,0,30,0
25.65050077,1392,0,30,0
25.65819526,813,0,30,0
25.6686635,1372,0,30,0
25.67578816,752,0,30,0
25.68954992,1424,0,30,0
25.70053124,887,0,30,0
25.70513296,1420,0,30,0
25.72042274,1003,0,30,0
25.72809052,1261,0,30,0
25.73672938,914,0,30,0
25.75044775,1114,0,30,0
25.75986886,758,0,30,0
25.76980877,1022,0,30,0
25.78042507,685,0,30,0
25.79105115,880,0,30,0
25.80032778,606,0,30,0
25.81032729,848,0,30,0
25.82020092,647,0,30,0
25.83039093,1334,0,30,0
25.83974648,891,0,30,0
25.85007787,1060,0,30,0
25.85996842,529,0,30,0
25.86987734,1200,0,30,0
25.87972498,674,0,30,0
25.89008141,1163,0,30,0
25.89699316,619,0,30,0
25.90847087,1076,0,30,0
25.92029977,691,0,30,0
25.92825532,944,0,30,0
25.93929029,722,0,30,0
25.94997954,1378,0,30,0
25.95764732,789,0,30,0
25.97001553,1159,0,30,0
25.97968411,818,0,30,0
25.98940539,1185,0,30,0
25.99601817,800,0,30,0
26.00997519,1222,0,30,0
26.0198319,726,0,30,0
26.03040552,1268,0,30,0
26.03966379,625,0,30,0
26.05050421,1262,0,30,0
26.05289578,885,0,30,0
26.06990027,1327,0,30,0
26.08065033,950,0,30,0
26.09031367,1401,0,30,0
26.0948174,1183,0,30,0
26.11011863,1389,0,30,0
26.12024212,1392,0,30,0
26.12859225,1408,0,30,0
26.14020562,1551,0,30,0
26.14827037,1457,0,30,0
26.15999198,1557,0,30,0
26.16983342,1481,0,30,0
26.17909908,1721,0,30,0
26.19038105,1472,0,30,0
26.19537354,1794,0,30,0
26.20978475,1548,0,30,0
26.2176497,1931,0,30,0
26.23021889,1507,0,30,0
26.24040055,1931,0,30,0
26.25035977,1132,0,30,0
26.26038647,2037,0,30,0
26.2696681,1463,0,30,0
26.27625227,2626,0,30,0
26.28940964,0,0,30,0
26.296628,554,0,30,0
26.31042719,0,0,30,0
26.31996632,1363,0,30,0
26.32766294,1423,0,30,0
26.34023094,190,0,30,0
26.34910917,1521,0,30,0
26.36058402,2530,0,30,0
26.37002945,725,0,30,0
26.38025451,0,0,30,0
26.38981652,704,0,30,0
26.39494157,215,0,30,0
26.40988374,2757,0,30,0
26.4196713,375,0,30,0
26.42809701,231,0,30,0
26.44001579,0,0,30,0
26.45095825,1261,0,30,0
26.45946002,935,0,30,0
26.47004485,0,0,30,0
26.47963643,1119,0,30,0
26.48956442,299,0,30,0
26.50093007,897,0,30,0
26.51034141,0,0,30,0
26.52029419,592,0,30,0
26.5301013,321,0,30,0
26.54017973,2466,0,30,0
26.55092859,1264,0,30,0
26.5603981,1439,0,30,0
26.56984997,0,0,30,0
26.57827139,1698,0,30,0
26.59020305,112,0,30,0
26.59375286,2172,0,30,0
26.61011362,130,0,30,0
26.61969995,85,0,30,0
26.62709737,416,0,30,0
26.63833284,272,0,30,0
26.65081263,26,0,30,0
26.6593802,275,0,30,0
26.67069173,848,0,30,0
26.67861748,528,0,30,0
26.69016051,1876,0,30,0
26.69567919,1360,0,30,0
26.70992255,192,0,30,0
26.72040415,1653,0,30,0
26.72860813,1361,0,30,0
26.73885846,1754,0,30,0
26.75088024,176,0,30,0
26.75487876,976,0,30,0
26.77040076,560,0,30,0
26.77857399,0,0,30,0
26.7851665,290,0,30,0
26.79530382,625,0,30,0
26.80301833,321,0,30,0
26.81925797,2263,0,30,0
26.82964587,1200,0,30,0
26.83758712,1994,0,30,0
26.85093832,210,0,30,0
26.85667801,1549,0,30,0
26.87012815,724,0,30,0
26.87943673,0,0,30,0
26.88943172,1359,0,30,0
26.89595222,2112,0,30,0
26.90980101,896,0,30,0
26.91745973,0,0,30,0
26.92711735,1873,0,30,0
26.93871784,107,0,30,0
26.95082545,1456,0,30,0
26.95800376,644,0,30,0
26.9697454,1971,0,30,0
26.97917628,115,0,30,0
26.98958945,1212,0,30,0
27.00109124,453,0,30,0
27.00858712,2314,0,30,0
27.01948237,1835,0,30,0
27.02888274,2313,0,30,0
27.03921223,1247,0,30,0
27.05083704,0,0,30,0
27.0560472,781,0,30,0
27.0694046,398,0,30,0
27.07990241,1920,0,30,0
27.0880084,226,0,30,0
27.0993216,683,0,30,0
27.10305095,530,0,30,0
27.11858559,0,0,30,0
27.12370276,1950,0,30,0
27.13859892,128,0,30,0
27.14966559,806,0,30,0
27.15296841,54,0,30,0
27.17055535,389,0,30,0
27.17055535,618,0,30,0
27.18864989,0,0,30,0
27.19874549,449,0,30,0
27.20919204,1194,0,30,0
27.21875334,16,0,30,0
27.22330499,0,0,30,0
27.23866105,0,0,30,0
27.24628067,0,0,30,0
27.25891733,0,0,30,0
27.26888895,0,0,30,0
27.2725327,1323,0,30,0
27.28934169,800,0,30,0
27.29377842,0,0,30,0
27.30293608,0,0,30,0
27.31901431,0,0,30,0
27.32525826,0,0,30,0
27.33866286,1291,0,30,0
27.34927821,0,0,30,0
27.35526633,0,0,30,0
27.36949134,0,0,30,0
27.37898016,176,0,30,0
27.38779497,34,0,30,0
27.39857388,334,0,30,0
27.40341115,626,0,30,0
27.41904306,0,0,30,0
27.42103672,1059,0,30,0
27.43882871,0,0,30,0
27.44887447,0,0,30,0
27.45413995,0,0,30,0
27.46946168,0,0,30,0
27.47295094,0,0,30,0
27.4876008,0,0,30,0
27.4988122,0,0,30,0
27.50392747,0,0,30,0
27.51962137,0,0,30,0
27.52457547,0,0,30,0
27.53837299,0,0,30,0
27.54743886,0,0,30,0
27.5549798,0,0,30,0
27.56907129,0,0,30,0
27.57064176,0,0,30,0
27.58640361,0,0,30,0
27.59211183,0,0,30,0
27.60405779,0,0,30,0
27.61855268,0,0,30,0
27.62210274,0,0,30,0
27.63838029,0,0,30,0
27.64952493,0,0,30,0
27.65432477,0,0,30,0
27.66885877,0,0,30,0
27.67690086,0,0,30,0
27.68776488,0,0,30,0
27.69898462,0,0,30,0
27.70868731,0,0,30,0
27.71884084,0,0,30,0
27.72853184,1161,0,30,0
27.7390883,0,0,30,0
27.74707389,0,0,30,0
27.75474596,0,0,30,0
27.76861215,795,0,30,0
27.77786279,0,0,30,0
27.78613806,0,0,30,0
27.79873323,0,0,30,0
27.80860233,99,0,30,0
27.81851888,1678,0,30,0
27.82515121,0,0,30,0
27.83936,0,0,30,0
27.84686589,1717,0,30,0
27.85360003,0,0,30,0
27.86889482,0,0,30,0
27.87766981,0,0,30,0
27.88599396,0,0,30,0
27.89855886,0,0,30,0
27.90929222,121,0,30,0
27.91882634,0,0,30,0
27.92941093,0,0,30,0
27.93934774,0,0,30,0
27.94765687,0,0,30,0
27.95325994,0,0,30,0
27.96757245,400,0,30,0
27.97750473,0,0,30,0
27.98487186,0,0,30,0
27.99938703,0,0,30,0
28.00148153,0,0,30,0
28.01152229,0,0,30,0
28.02355528,800,0,30,0
28.03367758,0,0,30,0
28.04593444,0,0,30,0
28.05925989,0,0,30,0
28.06026053,0,0,30,0
28.07027125,0,0,30,0
28.08027029,0,0,30,0
28.090271,0,0,30,0
28.10134625,0,0,30,0
28.11401081,0,0,30,0
28.12401986,801,0,30,0
28.1386621,0,0,30,0
28.14785385,0,0,30,0
28.1590724,0,0,30,0
28.16786456,0,0,30,0
28.17901611,0,0,30,0
28.18389535,828,0,30,0
28.19135308,0,0,30,0
28.20694494,0,0,30,0
28.21812272,0,0,30,0
28.22877717,0,0,30,0
28.23842978,0,0,30,0
28.24624491,813,0,30,0
28.25923729,0,0,30,0
28.26829386,0,0,30,0
28.27688956,0,0,30,0
28.28933501,0,0,30,0
28.2988658,0,0,30,0
28.30772042,0,0,30,0
28.31884909,0,0,30,0
28.32947659,0,0,30,0
28.33720517,0,0,30,0
28.34766841,944,0,30,0
28.35919738,0,0,30,0
28.36871958,0,0,30,0
28.37876868,0,0,30,0
28.38657975,0,0,30,0
28.39865208,0,0,30,0
28.40248203,1666,0,30,0
28.41361213,0,0,30,0
28.4236536,0,0,30,0
28.43366981,0,0,30,0
28.4447391,0,0,30,0
28.45857024,0,0,30,0
28.46870995,1658,0,30,0
28.46971011,0,0,30,0
28.48380804,0,0,30,0
28.4923718,0,0,30,0
28.50238109,0,0,30,0
28.51549792,0,0,30,0
28.52886224,2169,0,30,0
28.52986121,0,0,30,0
28.54099655,0,0,30,0
28.55100775,0,0,30,0
28.56769085,0,0,30,0
28.57936645,0,0,30,0
28.58931732,2928,0,30,0
28.59897256,0,0,30,0
28.60887527,0,0,30,0
28.61857367,0,0,30,0
28.62879443,0,0,30,0
28.63875937,0,0,30,0
28.64675021,2441,0,30,0
28.65953255,0,0,30,0
28.66935992,0,0,30,0
28.67861104,0,0,30,0
28.6890974,0,0,30,0
28.69858766,0,0,30,0
28.70885444,1840,0,30,0
28.71712923,0,0,30,0
28.7285161,0,0,30,0
28.73915243,0,0,30,0
28.74926543,0,0,30,0
28.75894928,0,0,30,0
28.7692132,0,0,30,0
28.77872992,0,0,30,0
28.78882384,0,0,30,0
28.79862833,0,0,30,0
28.80905247,1267,0,30,0
28.81706572,0,0,30,0
28.82900238,0,0,30,0
28.83905435,0,0,30,0
28.84760094,0,0,30,0
28.85902762,0,0,30,0
28.86922622,0,0,30,0
28.87889957,0,0,30,0
28.88889074,0,0,30,0
28.89939046,0,0,30,0
28.90920591,0,0,30,0
28.91915822,0,0,30,0
28.92810369,0,0,30,0
28.93870234,0,0,30,0
28.94569898,0,0,30,0
28.95878005,0,0,30,0
28.96706533,0,0,30,0
28.97870421,0,0,30,0
28.98900986,0,0,30,0
28.99755812,0,0,30,0
29.00885892,1725,0,30,0
29.01929569,0,0,30,0
29.02859116,0,0,30,0
29.03540754,0,0,30,0
29.04424357,0,0,30,0
29.0515542,0,0,30,0
29.06797552,0,0,30,0
29.07914186,0,0,30,0
29.08936477,0,0,30,0
29.098979,131,0,30,0
29.10475659,1208,0,30,0
29.11942077,0,0,30,0
29.12890053,0,0,30,0
29.13940978,221,0,30,0
29.14403701,871,0,30,0
29.15233326,0,0,30,0
29.16792893,0,0,30,0
29.17797923,0,0,30,0
29.18932199,0,0,30,0
29.1992538,0,0,30,0
29.20663118,1088,0,30,0
29.21869969,0,0,30,0
29.22926259,0,0,30,0
29.23535967,0,0,30,0
29.24881625,0,0,30,0
29.25945258,0,0,30,0
29.26838994,2083,0,30,0
29.27458501,0,0,30,0
29.2891016,0,0,30,0
29.29773188,609,0,30,0
29.30925822,2543,0,30,0
29.31921911,0,0,30,0
29.3293097,0,0,30,0
29.33929038,0,0,30,0
29.34369946,0,0,30,0
29.35941339,0,0,30,0
29.36795473,378,0,30,0
29.37871814,0,0,30,0
29.38928223,0,0,30,0
29.39877343,934,0,30,0
29.40929961,0,0,30,0
29.41936445,0,0,30,0
29.42817402,0,0,30,0
29.43920946,1136,0,30,0
29.44620609,0,0,30,0
29.45228243,0,0,30,0
29.46855116,0,0,30,0
29.47699237,1387,0,30,0
29.48951244,0,0,30,0
29.49752402,0,0,30,0
29.5038197,0,0,30,0
29.51805687,1651,0,30,0
29.52830195,0,0,30,0
29.53472948,0,0,30,0
29.54699588,0,0,30,0
29.55703783,0,0,30,0
29.56940627,0,0,30,0
29.57941175,0,0,30,0
29.58941197,0,0,30,0
29.59051037,0,0,30,0
29.60051966,0,0,30,0
29.61948872,0,0,30,0
29.62923312,0,0,30,0
29.63767123,9,0,30,0
29.64569664,0,0,30,0
29.65936875,0,0,30,0
29.66789007,0,0,30,0
29.6794045,2816,0,30,0
29.688802,0,0,30,0
29.69902301,0,0,30,0
29.70624042,0,0,30,0
29.71906686,1771,0,30,0
29.72803402,0,0,30,0
29.73611188,0,0,30,0
29.74913049,0,0,30,0
29.7588799,0,0,30,0
29.76932096,0,0,30,0
29.77419901,0,0,30,0
29.78885126,0,0,30,0
29.79636431,0,0,30,0
29.8048532,0,0,30,0
29.81871891,311,0,30,0
29.82923985,0,0,30,0
29.83916783,0,0,30,0
29.84914899,0,0,30,0
29.85779357,0,0,30,0
29.86720347,0,0,30,0
29.87329817,0,0,30,0
29.88837886,0,0,30,0
29.89767885,0,0,30,0
29.90312862,0,0,30,0
29.91897368,0,0,30,0
29.92904902,0,0,30,0
29.93004751,0,0,30,0
29.94211984,0,0,30,0
29.95214224,0,0,30,0
29.96353841,0,0,30,0
29.97449017,0,0,30,0
29.98448944,0,0,30,0
29.9960773,0,0,30,0
