Timestamp,EMG Value,massage_speed,massage_duration,relaxment_level
0.0009984970092773438,2305,0.0,30.0,0.0
0.011091470718383789,80,0.0,30.0,0.0
0.021089553833007812,2386,0.0,30.0,0.0
0.031087160110473633,85,0.0,30.0,0.0
0.04108786582946777,1947,0.0,30.0,0.0
0.05248379707336426,96,0.0,30.0,0.0
0.06654095649719238,0,0.0,30.0,0.0
0.07656383514404297,66,0.0,30.0,0.0
0.0865478515625,0,0.0,30.0,0.0
0.09654641151428223,80,0.0,30.0,0.0
0.09654641151428223,0,0.0,30.0,0.0
0.1165461540222168,73,0.0,30.0,0.0
0.1165461540222168,0,0.0,30.0,0.0
0.13654613494873047,97,0.0,30.0,0.0
0.13654613494873047,0,0.0,30.0,0.0
0.15654611587524414,82,0.0,30.0,0.0
0.15654611587524414,0,0.0,30.0,0.0
0.17654633522033691,70,0.0,30.0,0.0
0.17654633522033691,0,0.0,30.0,0.0
0.19655108451843262,88,0.0,30.0,0.0
0.19655108451843262,0,0.0,30.0,0.0
0.21619772911071777,111,0.0,30.0,0.0
0.22361278533935547,0,0.0,30.0,0.0
0.23636198043823242,119,0.0,30.0,0.0
0.23875141143798828,0,0.0,30.0,0.0
0.25377607345581055,119,0.0,30.0,0.0
0.26633286476135254,0,0.0,30.0,0.0
0.27634763717651367,123,0.0,30.0,0.0
0.2863445281982422,0,0.0,30.0,0.0
0.29634809494018555,141,0.0,30.0,0.0
0.30634450912475586,0,0.0,30.0,0.0
0.3165280818939209,171,0.0,30.0,0.0
0.31752634048461914,0,0.0,30.0,0.0
0.3283729553222656,128,0.0,30.0,0.0
0.346329927444458,0,0.0,30.0,0.0
0.3563547134399414,193,0.0,30.0,0.0
0.36634254455566406,0,0.0,30.0,0.0
0.36784791946411133,166,0.0,30.0,0.0
0.37786865234375,0,0.0,30.0,0.0
0.3878629207611084,162,0.0,30.0,0.0
0.39786338806152344,0,0.0,30.0,0.0
0.4165501594543457,131,0.0,30.0,0.0
0.4261012077331543,0,0.0,30.0,0.0
0.43585824966430664,122,0.0,30.0,0.0
0.4389686584472656,0,0.0,30.0,0.0
0.45633983612060547,153,0.0,30.0,0.0
0.46434926986694336,0,0.0,30.0,0.0
0.47132134437561035,191,0.0,30.0,0.0
0.485912561416626,0,0.0,30.0,0.0
0.486910343170166,115,0.0,30.0,0.0
0.505936861038208,0,0.0,30.0,0.0
0.5076866149902344,0,0.0,30.0,0.0
0.5177030563354492,0,0.0,30.0,0.0
0.5276951789855957,0,0.0,30.0,0.0
0.537696123123169,0,0.0,30.0,0.0
0.5476973056793213,0,0.0,30.0,0.0
0.5591883659362793,215,0.0,30.0,0.0
0.5692038536071777,0,0.0,30.0,0.0
0.5792245864868164,144,0.0,30.0,0.0
0.5892047882080078,0,0.0,30.0,0.0
0.5992062091827393,74,0.0,30.0,0.0
0.6120285987854004,0,0.0,30.0,0.0
0.6228842735290527,65,0.0,30.0,0.0
0.6357653141021729,0,0.0,30.0,0.0
0.639653205871582,57,0.0,30.0,0.0
0.6558566093444824,0,0.0,30.0,0.0
0.6663012504577637,62,0.0,30.0,0.0
0.6711506843566895,52,0.0,30.0,0.0
0.6858761310577393,50,0.0,30.0,0.0
0.6958885192871094,257,0.0,30.0,0.0
0.704923152923584,0,0.0,30.0,0.0
0.7163436412811279,349,0.0,30.0,0.0
0.7263519763946533,0,0.0,30.0,0.0
0.7363734245300293,352,0.0,30.0,0.0
0.7463562488555908,50,0.0,30.0,0.0
0.756354808807373,503,0.0,30.0,0.0
0.7663531303405762,0,0.0,30.0,0.0
0.7763521671295166,710,0.0,30.0,0.0
0.7863559722900391,1104,0.0,30.0,0.0
0.7963554859161377,240,0.0,30.0,0.0
0.8064439296722412,4095,0.0,30.0,0.0
0.8064439296722412,430,0.0,30.0,0.0
0.8243992328643799,4095,0.0,30.0,0.0
0.8308975696563721,636,0.0,30.0,0.0
0.8461613655090332,4095,0.0,30.0,0.0
0.856114387512207,752,0.0,30.0,0.0
0.8660252094268799,4095,0.0,30.0,0.0
0.8729994297027588,837,0.0,30.0,0.0
0.8858108520507812,4095,0.0,30.0,0.0
0.8878059387207031,816,0.0,30.0,0.0
0.8978216648101807,4095,0.0,30.0,0.0
0.907822847366333,925,0.0,30.0,0.0
0.9178228378295898,4095,0.0,30.0,0.0
0.9278223514556885,960,0.0,30.0,0.0
0.9378228187561035,4095,0.0,30.0,0.0
0.9478240013122559,1009,0.0,30.0,0.0
0.9578225612640381,4095,0.0,30.0,0.0
0.9763321876525879,1091,0.0,30.0,0.0
0.9863436222076416,4095,0.0,30.0,0.0
0.9963407516479492,1047,0.0,30.0,0.0
1.0040743350982666,4095,0.0,30.0,0.0
1.0160257816314697,1117,0.0,30.0,0.0
1.0207417011260986,2798,0.0,30.0,0.0
1.0363337993621826,1060,0.0,30.0,0.0
1.0463461875915527,2958,0.0,30.0,0.0
1.0566449165344238,1093,0.0,30.0,0.0
1.0659897327423096,2805,0.0,30.0,0.0
1.0756988525390625,1134,0.0,30.0,0.0
1.0860722064971924,2955,0.0,30.0,0.0
1.0901782512664795,1139,0.0,30.0,0.0
1.1050729751586914,2670,0.0,30.0,0.0
1.1131007671356201,1177,0.0,30.0,0.0
1.1201179027557373,1616,0.0,30.0,0.0
1.1366639137268066,1061,0.0,30.0,0.0
1.1366639137268066,1142,0.0,30.0,0.0
1.1533279418945312,816,0.0,30.0,0.0
1.163341760635376,806,0.0,30.0,0.0
1.1733450889587402,603,0.0,30.0,0.0
1.1833441257476807,466,0.0,30.0,0.0
1.1933448314666748,1876,0.0,30.0,0.0
1.2033438682556152,1701,0.0,30.0,0.0
1.213343858718872,993,0.0,30.0,0.0
1.2233445644378662,1344,0.0,30.0,0.0
1.2363991737365723,4095,0.0,30.0,0.0
1.2409377098083496,1385,0.0,30.0,0.0
1.2563269138336182,4095,0.0,30.0,0.0
1.266050100326538,1599,0.0,30.0,0.0
1.2763984203338623,4095,0.0,30.0,0.0
1.2858021259307861,1711,0.0,30.0,0.0
1.2946631908416748,4095,0.0,30.0,0.0
1.30372953414917,1744,0.0,30.0,0.0
1.3100543022155762,4095,0.0,30.0,0.0
1.3261711597442627,1621,0.0,30.0,0.0
1.336571216583252,4095,0.0,30.0,0.0
1.3419113159179688,1588,0.0,30.0,0.0
1.35628080368042,4095,0.0,30.0,0.0
1.3647692203521729,173,0.0,30.0,0.0
1.3725001811981201,967,0.0,30.0,0.0
1.3865430355072021,4095,0.0,30.0,0.0
1.3947482109069824,3426,0.0,30.0,0.0
1.4053244590759277,4095,0.0,30.0,0.0
1.4142577648162842,4095,0.0,30.0,0.0
1.420133113861084,4095,0.0,30.0,0.0
1.435887098312378,4095,0.0,30.0,0.0
1.4368855953216553,4095,0.0,30.0,0.0
1.4485695362091064,4095,0.0,30.0,0.0
1.4586048126220703,4095,0.0,30.0,0.0
1.4686036109924316,4095,0.0,30.0,0.0
1.4864747524261475,4095,0.0,30.0,0.0
1.495739459991455,4095,0.0,30.0,0.0
1.5046803951263428,4095,0.0,30.0,0.0
1.5159459114074707,4095,0.0,30.0,0.0
1.5258941650390625,4095,0.0,30.0,0.0
1.536180019378662,4095,0.0,30.0,0.0
1.5465476512908936,4095,0.0,30.0,0.0
1.5563414096832275,4095,0.0,30.0,0.0
1.5593857765197754,4095,0.0,30.0,0.0
1.5757644176483154,4095,0.0,30.0,0.0
1.5792927742004395,4095,0.0,30.0,0.0
1.5893189907073975,4095,0.0,30.0,0.0
1.601210594177246,4095,0.0,30.0,0.0
1.6112613677978516,4095,0.0,30.0,0.0
1.621229648590088,4095,0.0,30.0,0.0
1.6357040405273438,815,0.0,30.0,0.0
1.6397323608398438,2798,0.0,30.0,0.0
1.6551830768585205,0,0.0,30.0,0.0
1.66520094871521,1765,0.0,30.0,0.0
1.6721863746643066,0,0.0,30.0,0.0
1.6864495277404785,1345,0.0,30.0,0.0
1.6874470710754395,0,0.0,30.0,0.0
1.7064249515533447,1185,0.0,30.0,0.0
1.716369390487671,953,0.0,30.0,0.0
1.7212395668029785,1205,0.0,30.0,0.0
1.7361221313476562,2202,0.0,30.0,0.0
1.7394275665283203,1310,0.0,30.0,0.0
1.7548646926879883,2064,0.0,30.0,0.0
1.766676664352417,1305,0.0,30.0,0.0
1.770136833190918,2087,0.0,30.0,0.0
1.7813920974731445,1072,0.0,30.0,0.0
1.7931087017059326,546,0.0,30.0,0.0
1.8031506538391113,489,0.0,30.0,0.0
1.816544532775879,215,0.0,30.0,0.0
1.8266122341156006,1801,0.0,30.0,0.0
1.833226203918457,2357,0.0,30.0,0.0
1.8443000316619873,2189,0.0,30.0,0.0
1.855602741241455,2346,0.0,30.0,0.0
1.856602430343628,1858,0.0,30.0,0.0
1.869856595993042,2214,0.0,30.0,0.0
1.8855855464935303,1634,0.0,30.0,0.0
1.8959622383117676,1965,0.0,30.0,0.0
1.896958351135254,1547,0.0,30.0,0.0
1.9069628715515137,1742,0.0,30.0,0.0
1.9266159534454346,1408,0.0,30.0,0.0
1.9357550144195557,1712,0.0,30.0,0.0
1.9389698505401611,1477,0.0,30.0,0.0
1.9534797668457031,1734,0.0,30.0,0.0
1.9623839855194092,1132,0.0,30.0,0.0
1.969949722290039,1660,0.0,30.0,0.0
1.9799630641937256,1564,0.0,30.0,0.0
1.9927887916564941,1823,0.0,30.0,0.0
2.006685972213745,1309,0.0,30.0,0.0
2.016692876815796,1616,0.0,30.0,0.0
2.026921272277832,1828,0.0,30.0,0.0
2.02791690826416,1835,0.0,30.0,0.0
2.0464510917663574,1778,0.0,30.0,0.0
2.0474507808685303,1823,0.0,30.0,0.0
2.057494640350342,959,0.0,30.0,0.0
2.0674941539764404,2091,0.0,30.0,0.0
2.0796449184417725,793,0.0,30.0,0.0
2.089653730392456,2288,0.0,30.0,0.0
2.099653720855713,499,0.0,30.0,0.0
2.1136393547058105,2328,0.0,30.0,0.0
2.123676300048828,462,0.0,30.0,0.0
2.136422634124756,1973,0.0,30.0,0.0
2.1456212997436523,395,0.0,30.0,0.0
2.1563026905059814,2110,0.0,30.0,0.0
2.1643199920654297,479,0.0,30.0,0.0
2.175689935684204,2291,0.0,30.0,0.0
2.1865108013153076,576,0.0,30.0,0.0
2.19232177734375,2162,0.0,30.0,0.0
2.2036850452423096,657,0.0,30.0,0.0
2.213682174682617,2246,0.0,30.0,0.0
2.223682403564453,651,0.0,30.0,0.0
2.23368239402771,2334,0.0,30.0,0.0
2.2441468238830566,777,0.0,30.0,0.0
2.254180669784546,2290,0.0,30.0,0.0
2.2641799449920654,657,0.0,30.0,0.0
2.276331901550293,167,0.0,30.0,0.0
2.2863447666168213,703,0.0,30.0,0.0
2.29634428024292,970,0.0,30.0,0.0
2.2976386547088623,731,0.0,30.0,0.0
2.307645320892334,1329,0.0,30.0,0.0
2.317645311355591,634,0.0,30.0,0.0
2.328850746154785,137,0.0,30.0,0.0
2.3398337364196777,694,0.0,30.0,0.0
2.356070041656494,153,0.0,30.0,0.0
2.3662776947021484,883,0.0,30.0,0.0
2.371286392211914,125,0.0,30.0,0.0
2.385634422302246,976,0.0,30.0,0.0
2.3959479331970215,141,0.0,30.0,0.0
2.4042561054229736,1251,0.0,30.0,0.0
2.4163808822631836,151,0.0,30.0,0.0
2.4264352321624756,1140,0.0,30.0,0.0
2.4365720748901367,145,0.0,30.0,0.0
2.4375829696655273,1344,0.0,30.0,0.0
2.447596549987793,173,0.0,30.0,0.0
2.4575963020324707,1958,0.0,30.0,0.0
2.4675967693328857,176,0.0,30.0,0.0
2.4775965213775635,1382,0.0,30.0,0.0
2.4875965118408203,2224,0.0,30.0,0.0
2.4975967407226562,787,0.0,30.0,0.0
2.507596492767334,2123,0.0,30.0,0.0
2.517596483230591,1873,0.0,30.0,0.0
2.527597665786743,1997,0.0,30.0,0.0
2.537626266479492,1832,0.0,30.0,0.0
2.5548698902130127,1822,0.0,30.0,0.0
2.5663013458251953,1936,0.0,30.0,0.0
2.5756020545959473,1254,0.0,30.0,0.0
2.58559250831604,1087,0.0,30.0,0.0
2.5957579612731934,1053,0.0,30.0,0.0
2.6063272953033447,831,0.0,30.0,0.0
2.6143369674682617,916,0.0,30.0,0.0
2.622370958328247,647,0.0,30.0,0.0
2.6363308429718018,809,0.0,30.0,0.0
2.6463429927825928,542,0.0,30.0,0.0
2.6563429832458496,542,0.0,30.0,0.0
2.66634202003479,411,0.0,30.0,0.0
2.6763429641723633,316,0.0,30.0,0.0
2.6863393783569336,49,0.0,30.0,0.0
2.696342706680298,1167,0.0,30.0,0.0
2.7063753604888916,2386,0.0,30.0,0.0
2.707371950149536,279,0.0,30.0,0.0
2.7185816764831543,379,0.0,30.0,0.0
2.728588819503784,275,0.0,30.0,0.0
2.738588571548462,147,0.0,30.0,0.0
2.748588800430298,423,0.0,30.0,0.0
2.7585885524749756,250,0.0,30.0,0.0
2.77646803855896,412,0.0,30.0,0.0
2.785588026046753,483,0.0,30.0,0.0
2.7945611476898193,407,0.0,30.0,0.0
2.805980920791626,465,0.0,30.0,0.0
2.814044237136841,446,0.0,30.0,0.0
2.819977283477783,347,0.0,30.0,0.0
2.8363311290740967,376,0.0,30.0,0.0
2.846341609954834,240,0.0,30.0,0.0
2.856339931488037,341,0.0,30.0,0.0
2.8663063049316406,2275,0.0,30.0,0.0
2.876319169998169,1229,0.0,30.0,0.0
2.8863182067871094,833,0.0,30.0,0.0
2.887702226638794,1310,0.0,30.0,0.0
2.8977184295654297,1990,0.0,30.0,0.0
2.9091224670410156,993,0.0,30.0,0.0
2.919262170791626,1947,0.0,30.0,0.0
2.929262161254883,1360,0.0,30.0,0.0
2.939263105392456,975,0.0,30.0,0.0
2.9492621421813965,1163,0.0,30.0,0.0
2.9592630863189697,1111,0.0,30.0,0.0
2.9692633152008057,1150,0.0,30.0,0.0
2.979262113571167,1131,0.0,30.0,0.0
2.996175527572632,1253,0.0,30.0,0.0
3.0065317153930664,1146,0.0,30.0,0.0
3.01594614982605,472,0.0,30.0,0.0
3.0235326290130615,192,0.0,30.0,0.0
3.0356862545013428,477,0.0,30.0,0.0
3.0376813411712646,155,0.0,30.0,0.0
3.047687530517578,463,0.0,30.0,0.0
3.0649781227111816,158,0.0,30.0,0.0
3.074991226196289,483,0.0,30.0,0.0
3.086104154586792,51,0.0,30.0,0.0
3.096343994140625,474,0.0,30.0,0.0
3.098337411880493,24,0.0,30.0,0.0
3.1085257530212402,522,0.0,30.0,0.0
3.1194794178009033,49,0.0,30.0,0.0
3.12947940826416,525,0.0,30.0,0.0
3.1394801139831543,49,0.0,30.0,0.0
3.1494812965393066,545,0.0,30.0,0.0
3.159480333328247,80,0.0,30.0,0.0
3.1697638034820557,560,0.0,30.0,0.0
3.1818385124206543,112,0.0,30.0,0.0
3.1919541358947754,566,0.0,30.0,0.0
3.204709529876709,170,0.0,30.0,0.0
3.2099716663360596,564,0.0,30.0,0.0
3.219773530960083,154,0.0,30.0,0.0
3.2362523078918457,592,0.0,30.0,0.0
3.2392454147338867,160,0.0,30.0,0.0
3.253195285797119,530,0.0,30.0,0.0
3.2632062435150146,186,0.0,30.0,0.0
3.273207426071167,556,0.0,30.0,0.0
3.2832064628601074,195,0.0,30.0,0.0
3.2963311672210693,544,0.0,30.0,0.0
3.3063433170318604,208,0.0,30.0,0.0
3.316354274749756,598,0.0,30.0,0.0
3.326343536376953,220,0.0,30.0,0.0
3.3363420963287354,643,0.0,30.0,0.0
3.3463518619537354,217,0.0,30.0,0.0
3.3563425540924072,656,0.0,30.0,0.0
3.3663430213928223,248,0.0,30.0,0.0
3.3763434886932373,625,0.0,30.0,0.0
3.386331558227539,242,0.0,30.0,0.0
3.396343231201172,625,0.0,30.0,0.0
3.4063429832458496,239,0.0,30.0,0.0
3.416487693786621,640,0.0,30.0,0.0
3.426408052444458,353,0.0,30.0,0.0
3.436452865600586,607,0.0,30.0,0.0
3.445662021636963,190,0.0,30.0,0.0
3.455814838409424,558,0.0,30.0,0.0
3.463820457458496,272,0.0,30.0,0.0
3.4697113037109375,459,0.0,30.0,0.0
3.479722738265991,275,0.0,30.0,0.0
3.4897212982177734,622,0.0,30.0,0.0
3.4997212886810303,221,0.0,30.0,0.0
3.509721517562866,717,0.0,30.0,0.0
3.519721269607544,526,0.0,30.0,0.0
3.5297391414642334,848,0.0,30.0,0.0
3.5397214889526367,554,0.0,30.0,0.0
3.5497212409973145,887,0.0,30.0,0.0
3.5597214698791504,606,0.0,30.0,0.0
3.575998306274414,880,0.0,30.0,0.0
3.5794677734375,659,0.0,30.0,0.0
3.589479923248291,858,0.0,30.0,0.0
3.5994796752929688,560,0.0,30.0,0.0
3.611760139465332,733,0.0,30.0,0.0
3.6251766681671143,459,0.0,30.0,0.0
3.6363043785095215,793,0.0,30.0,0.0
3.6392970085144043,379,0.0,30.0,0.0
3.6545281410217285,916,0.0,30.0,0.0
3.662616014480591,307,0.0,30.0,0.0
3.669703245162964,831,0.0,30.0,0.0
3.679710626602173,466,0.0,30.0,0.0
3.689711093902588,767,0.0,30.0,0.0
3.6997103691101074,468,0.0,30.0,0.0
3.7097105979919434,899,0.0,30.0,0.0
3.719710350036621,624,0.0,30.0,0.0
3.729743242263794,915,0.0,30.0,0.0
3.73972487449646,714,0.0,30.0,0.0
3.749741792678833,863,0.0,30.0,0.0
3.7597103118896484,645,0.0,30.0,0.0
3.7697103023529053,871,0.0,30.0,0.0
3.779710292816162,586,0.0,30.0,0.0
3.789736270904541,896,0.0,30.0,0.0
3.799710273742676,582,0.0,30.0,0.0
3.8097102642059326,933,0.0,30.0,0.0
3.819711208343506,566,0.0,30.0,0.0
3.8362174034118652,926,0.0,30.0,0.0
3.8465402126312256,560,0.0,30.0,0.0
3.8540005683898926,951,0.0,30.0,0.0
3.8620107173919678,366,0.0,30.0,0.0
3.8699288368225098,944,0.0,30.0,0.0
3.8862345218658447,452,0.0,30.0,0.0
3.8882241249084473,962,0.0,30.0,0.0
3.898230791091919,451,0.0,30.0,0.0
3.908250570297241,958,0.0,30.0,0.0
3.9182307720184326,452,0.0,30.0,0.0
3.928248643875122,1002,0.0,30.0,0.0
3.9382307529449463,465,0.0,30.0,0.0
3.948230743408203,1031,0.0,30.0,0.0
3.95823073387146,464,0.0,30.0,0.0
3.968230724334717,1009,0.0,30.0,0.0
3.978231906890869,502,0.0,30.0,0.0
3.9882304668426514,1056,0.0,30.0,0.0
3.9982316493988037,529,0.0,30.0,0.0
4.008230686187744,1072,0.0,30.0,0.0
4.018247127532959,624,0.0,30.0,0.0
4.028230905532837,1088,0.0,30.0,0.0
4.04635214805603,557,0.0,30.0,0.0
4.056053161621094,1152,0.0,30.0,0.0
4.0660765171051025,560,0.0,30.0,0.0
4.070728302001953,1267,0.0,30.0,0.0
4.086561918258667,899,0.0,30.0,0.0
4.087323188781738,1492,0.0,30.0,0.0
4.0975494384765625,1057,0.0,30.0,0.0
4.108500242233276,1605,0.0,30.0,0.0
4.120756149291992,1210,0.0,30.0,0.0
4.130765199661255,1406,0.0,30.0,0.0
4.140764951705933,1114,0.0,30.0,0.0
4.150765419006348,1292,0.0,30.0,0.0
4.160764694213867,1035,0.0,30.0,0.0
4.170764446258545,1168,0.0,30.0,0.0
4.180764675140381,944,0.0,30.0,0.0
4.1907899379730225,1090,0.0,30.0,0.0
4.2007646560668945,831,0.0,30.0,0.0
4.210763216018677,986,0.0,30.0,0.0
4.220763206481934,830,0.0,30.0,0.0
4.236304998397827,994,0.0,30.0,0.0
4.246338844299316,865,0.0,30.0,0.0
4.256484746932983,1458,0.0,30.0,0.0
4.266329765319824,816,0.0,30.0,0.0
4.275312900543213,1516,0.0,30.0,0.0
4.285562992095947,833,0.0,30.0,0.0
4.295527696609497,1518,0.0,30.0,0.0
4.302863359451294,762,0.0,30.0,0.0
4.312880277633667,1326,0.0,30.0,0.0
4.326330184936523,681,0.0,30.0,0.0
4.336342811584473,1293,0.0,30.0,0.0
4.3463428020477295,673,0.0,30.0,0.0
4.356358289718628,1515,0.0,30.0,0.0
4.366358995437622,825,0.0,30.0,0.0
4.3763427734375,1725,0.0,30.0,0.0
4.386305093765259,1038,0.0,30.0,0.0
4.396313667297363,1679,0.0,30.0,0.0
4.40631890296936,976,0.0,30.0,0.0
4.416317701339722,1602,0.0,30.0,0.0
4.426681041717529,866,0.0,30.0,0.0
4.427678108215332,1829,0.0,30.0,0.0
4.43768835067749,882,0.0,30.0,0.0
4.448817014694214,1568,0.0,30.0,0.0
4.4588236808776855,1035,0.0,30.0,0.0
4.475641250610352,1535,0.0,30.0,0.0
4.4861040115356445,1147,0.0,30.0,0.0
4.496175050735474,1634,0.0,30.0,0.0
4.504822015762329,1198,0.0,30.0,0.0
4.51283073425293,1697,0.0,30.0,0.0
4.519462585449219,1199,0.0,30.0,0.0
4.536418676376343,1798,0.0,30.0,0.0
4.546412706375122,1099,0.0,30.0,0.0
4.54740834236145,1757,0.0,30.0,0.0
4.55745530128479,1234,0.0,30.0,0.0
4.5674827098846436,1964,0.0,30.0,0.0
4.57745885848999,1249,0.0,30.0,0.0
4.59579610824585,1769,0.0,30.0,0.0
4.60605263710022,1264,0.0,30.0,0.0
4.61594033241272,1817,0.0,30.0,0.0
4.626486778259277,1352,0.0,30.0,0.0
4.627486944198608,1474,0.0,30.0,0.0
4.646332502365112,1289,0.0,30.0,0.0
4.656344413757324,1524,0.0,30.0,0.0
4.666344881057739,1296,0.0,30.0,0.0
4.668005466461182,910,0.0,30.0,0.0
4.686444044113159,1264,0.0,30.0,0.0
4.696541786193848,977,0.0,30.0,0.0
4.702861309051514,1319,0.0,30.0,0.0
4.710876703262329,877,0.0,30.0,0.0
4.719961166381836,1279,0.0,30.0,0.0
4.736159324645996,1313,0.0,30.0,0.0
4.746304988861084,1179,0.0,30.0,0.0
4.756417274475098,1311,0.0,30.0,0.0
4.7574145793914795,1648,0.0,30.0,0.0
4.767439842224121,1217,0.0,30.0,0.0
4.780907392501831,1343,0.0,30.0,0.0
4.7888970375061035,1325,0.0,30.0,0.0
4.806331157684326,2027,0.0,30.0,0.0
4.816343307495117,1331,0.0,30.0,0.0
4.826354742050171,1787,0.0,30.0,0.0
4.836353540420532,1144,0.0,30.0,0.0
4.846343040466309,1392,0.0,30.0,0.0
4.856346368789673,925,0.0,30.0,0.0
4.866339683532715,1257,0.0,30.0,0.0
4.876343250274658,653,0.0,30.0,0.0
4.886343002319336,1174,0.0,30.0,0.0
4.8967125415802,464,0.0,30.0,0.0
4.906140327453613,1647,0.0,30.0,0.0
4.915901184082031,2250,0.0,30.0,0.0
4.9202516078948975,1705,0.0,30.0,0.0
4.936413049697876,2071,0.0,30.0,0.0
4.9444239139556885,1503,0.0,30.0,0.0
4.953458786010742,1203,0.0,30.0,0.0
4.964698791503906,1266,0.0,30.0,0.0
4.976339340209961,659,0.0,30.0,0.0
4.986352205276489,1069,0.0,30.0,0.0
4.996351718902588,523,0.0,30.0,0.0
5.006351947784424,1631,0.0,30.0,0.0
5.016351699829102,2171,0.0,30.0,0.0
5.026351690292358,1450,0.0,30.0,0.0
5.036351680755615,1398,0.0,30.0,0.0
5.04635214805603,971,0.0,30.0,0.0
5.056351900100708,889,0.0,30.0,0.0
5.066368818283081,947,0.0,30.0,0.0
5.076351881027222,506,0.0,30.0,0.0
5.086614370346069,926,0.0,30.0,0.0
5.087610721588135,560,0.0,30.0,0.0
5.097618818283081,911,0.0,30.0,0.0
5.11372971534729,1734,0.0,30.0,0.0
5.126413822174072,1585,0.0,30.0,0.0
5.1360509395599365,2106,0.0,30.0,0.0
5.145048379898071,1435,0.0,30.0,0.0
5.15296196937561,1086,0.0,30.0,0.0
5.1609907150268555,1727,0.0,30.0,0.0
5.170043468475342,2037,0.0,30.0,0.0
5.180256128311157,1625,0.0,30.0,0.0
5.191235542297363,2157,0.0,30.0,0.0
5.201235294342041,1713,0.0,30.0,0.0
5.211235523223877,2173,0.0,30.0,0.0
5.22630500793457,1744,0.0,30.0,0.0
5.23633337020874,2126,0.0,30.0,0.0
5.246316909790039,1729,0.0,30.0,0.0
5.2563135623931885,407,0.0,30.0,0.0
5.266624927520752,1726,0.0,30.0,0.0
5.2676239013671875,530,0.0,30.0,0.0
5.277635812759399,1758,0.0,30.0,0.0
5.287636995315552,1885,0.0,30.0,0.0
5.2976367473602295,1714,0.0,30.0,0.0
5.307636976242065,366,0.0,30.0,0.0
5.317637205123901,887,0.0,30.0,0.0
5.336210250854492,481,0.0,30.0,0.0
5.346513509750366,862,0.0,30.0,0.0
5.353574514389038,410,0.0,30.0,0.0
5.361622095108032,926,0.0,30.0,0.0
5.369637966156006,399,0.0,30.0,0.0
5.385906934738159,973,0.0,30.0,0.0
5.386904954910278,416,0.0,30.0,0.0
5.39691424369812,1010,0.0,30.0,0.0
5.406915664672852,551,0.0,30.0,0.0
5.416914463043213,1077,0.0,30.0,0.0
5.42691445350647,443,0.0,30.0,0.0
5.436918497085571,1115,0.0,30.0,0.0
5.4469146728515625,481,0.0,30.0,0.0
5.4571213722229,1457,0.0,30.0,0.0
5.468108177185059,490,0.0,30.0,0.0
5.47810697555542,1207,0.0,30.0,0.0
5.48968505859375,461,0.0,30.0,0.0
5.499702453613281,834,0.0,30.0,0.0
5.509702682495117,124,0.0,30.0,0.0
5.519703388214111,1449,0.0,30.0,0.0
5.529733180999756,2694,0.0,30.0,0.0
5.539702415466309,2179,0.0,30.0,0.0
5.552279472351074,2448,0.0,30.0,0.0
5.56639838218689,2031,0.0,30.0,0.0
5.571576833724976,2219,0.0,30.0,0.0
5.586126089096069,2000,0.0,30.0,0.0
5.596257448196411,2001,0.0,30.0,0.0
5.602574825286865,1824,0.0,30.0,0.0
5.61402153968811,1638,0.0,30.0,0.0
5.626113653182983,1776,0.0,30.0,0.0
5.631057977676392,1303,0.0,30.0,0.0
5.641461133956909,1415,0.0,30.0,0.0
5.6524717807769775,743,0.0,30.0,0.0
5.666283369064331,1679,0.0,30.0,0.0
5.667291164398193,502,0.0,30.0,0.0
5.678554058074951,1824,0.0,30.0,0.0
5.688551664352417,2032,0.0,30.0,0.0
5.698551654815674,1681,0.0,30.0,0.0
5.708551645278931,2285,0.0,30.0,0.0
5.718552827835083,1241,0.0,30.0,0.0
5.728551626205444,528,0.0,30.0,0.0
5.738551616668701,1106,0.0,30.0,0.0
5.7485527992248535,366,0.0,30.0,0.0
5.765736818313599,1056,0.0,30.0,0.0
5.775341510772705,544,0.0,30.0,0.0
5.786057233810425,1531,0.0,30.0,0.0
5.795098304748535,718,0.0,30.0,0.0
5.8063013553619385,1757,0.0,30.0,0.0
5.814311265945435,1137,0.0,30.0,0.0
5.8223326206207275,1843,0.0,30.0,0.0
5.832356214523315,2484,0.0,30.0,0.0
5.84236478805542,1837,0.0,30.0,0.0
5.8523337841033936,2460,0.0,30.0,0.0
5.862355947494507,1714,0.0,30.0,0.0
5.87236213684082,2546,0.0,30.0,0.0
5.886303663253784,2054,0.0,30.0,0.0
5.896315813064575,1728,0.0,30.0,0.0
5.9063146114349365,2112,0.0,30.0,0.0
5.916316032409668,1289,0.0,30.0,0.0
5.926315784454346,2112,0.0,30.0,0.0
5.93631386756897,2438,0.0,30.0,0.0
5.946312189102173,2058,0.0,30.0,0.0
5.94665789604187,2439,0.0,30.0,0.0
5.957628488540649,2112,0.0,30.0,0.0
5.976409435272217,2366,0.0,30.0,0.0
5.98662257194519,1745,0.0,30.0,0.0
5.995661020278931,0,0.0,30.0,0.0
6.006327152252197,1456,0.0,30.0,0.0
6.014338254928589,2589,0.0,30.0,0.0
6.019585132598877,1705,0.0,30.0,0.0
6.029596328735352,253,0.0,30.0,0.0
6.039596319198608,1451,0.0,30.0,0.0
6.052387952804565,0,0.0,30.0,0.0
6.062394618988037,1567,0.0,30.0,0.0
6.072394847869873,0,0.0,30.0,0.0
6.082395792007446,1182,0.0,30.0,0.0
6.092398643493652,2510,0.0,30.0,0.0
6.10239839553833,1387,0.0,30.0,0.0
6.112396001815796,2655,0.0,30.0,0.0
6.122394800186157,899,0.0,30.0,0.0
6.135473251342773,2654,0.0,30.0,0.0
6.139598846435547,371,0.0,30.0,0.0
6.151916265487671,0,0.0,30.0,0.0
6.162738561630249,549,0.0,30.0,0.0
6.17273736000061,0,0.0,30.0,0.0
6.185579538345337,378,0.0,30.0,0.0
6.196394205093384,1239,0.0,30.0,0.0
6.2060465812683105,1998,0.0,30.0,0.0
6.214086055755615,2464,0.0,30.0,0.0
6.221977949142456,1899,0.0,30.0,0.0
6.2358222007751465,2182,0.0,30.0,0.0
6.246348142623901,1584,0.0,30.0,0.0
6.256351709365845,917,0.0,30.0,0.0
6.266374349594116,1274,0.0,30.0,0.0
6.276559352874756,651,0.0,30.0,0.0
6.282060384750366,1072,0.0,30.0,0.0
6.2928876876831055,455,0.0,30.0,0.0
6.305233001708984,884,0.0,30.0,0.0
6.315807104110718,304,0.0,30.0,0.0
6.316805362701416,906,0.0,30.0,0.0
6.326816082000732,272,0.0,30.0,0.0
6.336815357208252,923,0.0,30.0,0.0
6.34681510925293,318,0.0,30.0,0.0
6.356820583343506,906,0.0,30.0,0.0
6.376304864883423,368,0.0,30.0,0.0
6.386317729949951,806,0.0,30.0,0.0
6.396421432495117,295,0.0,30.0,0.0
6.406433343887329,665,0.0,30.0,0.0
6.416465997695923,240,0.0,30.0,0.0
6.420203924179077,603,0.0,30.0,0.0
6.4361793994903564,198,0.0,30.0,0.0
6.444255828857422,567,0.0,30.0,0.0
6.452291488647461,186,0.0,30.0,0.0
6.464718341827393,549,0.0,30.0,0.0
6.474737644195557,2,0.0,30.0,0.0
6.4864866733551025,497,0.0,30.0,0.0
6.487483978271484,0,0.0,30.0,0.0
6.497499465942383,361,0.0,30.0,0.0
6.507507801055908,0,0.0,30.0,0.0
6.517518758773804,485,0.0,30.0,0.0
6.52750039100647,70,0.0,30.0,0.0
6.537500619888306,530,0.0,30.0,0.0
6.547499418258667,130,0.0,30.0,0.0
6.557499647140503,593,0.0,30.0,0.0
6.567499160766602,140,0.0,30.0,0.0
6.5775017738342285,635,0.0,30.0,0.0
6.587500810623169,155,0.0,30.0,0.0
6.602354288101196,694,0.0,30.0,0.0
6.616352081298828,81,0.0,30.0,0.0
6.620502948760986,744,0.0,30.0,0.0
6.635025978088379,0,0.0,30.0,0.0
6.645108938217163,769,0.0,30.0,0.0
6.652291774749756,187,0.0,30.0,0.0
6.662846326828003,775,0.0,30.0,0.0
6.673748731613159,214,0.0,30.0,0.0
6.683736324310303,793,0.0,30.0,0.0
6.693899393081665,218,0.0,30.0,0.0
6.7048468589782715,783,0.0,30.0,0.0
6.716304063796997,14,0.0,30.0,0.0
6.726316213607788,785,0.0,30.0,0.0
6.736441373825073,256,0.0,30.0,0.0
6.7374396324157715,820,0.0,30.0,0.0
6.747457504272461,314,0.0,30.0,0.0
6.757465600967407,844,0.0,30.0,0.0
6.767491102218628,321,0.0,30.0,0.0
6.7774574756622314,883,0.0,30.0,0.0
6.787457704544067,338,0.0,30.0,0.0
6.797457218170166,906,0.0,30.0,0.0
6.807457447052002,318,0.0,30.0,0.0
6.8258056640625,951,0.0,30.0,0.0
6.836325407028198,318,0.0,30.0,0.0
6.845219850540161,976,0.0,30.0,0.0
6.853460311889648,338,0.0,30.0,0.0
6.861473560333252,993,0.0,30.0,0.0
6.868432283401489,63,0.0,30.0,0.0
6.886305332183838,1015,0.0,30.0,0.0
6.896314382553101,383,0.0,30.0,0.0
6.906314134597778,1101,0.0,30.0,0.0
6.916316032409668,458,0.0,30.0,0.0
6.926573991775513,1077,0.0,30.0,0.0
6.927570819854736,400,0.0,30.0,0.0
6.937578439712524,1091,0.0,30.0,0.0
6.947577714920044,94,0.0,30.0,0.0
6.957578420639038,1061,0.0,30.0,0.0
6.968882322311401,135,0.0,30.0,0.0
6.978901624679565,1158,0.0,30.0,0.0
6.988901853561401,433,0.0,30.0,0.0
7.006305932998657,1152,0.0,30.0,0.0
7.016318082809448,476,0.0,30.0,0.0
7.026314735412598,1037,0.0,30.0,0.0
7.036439895629883,501,0.0,30.0,0.0
7.045119762420654,718,0.0,30.0,0.0
7.055647134780884,96,0.0,30.0,0.0
7.066056966781616,626,0.0,30.0,0.0
7.071324825286865,97,0.0,30.0,0.0
7.085649728775024,1087,0.0,30.0,0.0
7.09615683555603,576,0.0,30.0,0.0
7.0971527099609375,1168,0.0,30.0,0.0
7.107190847396851,650,0.0,30.0,0.0
7.117163896560669,1413,0.0,30.0,0.0
7.127164125442505,812,0.0,30.0,0.0
7.137163400650024,1524,0.0,30.0,0.0
7.148541212081909,930,0.0,30.0,0.0
7.165258884429932,1435,0.0,30.0,0.0
7.168401479721069,957,0.0,30.0,0.0
7.180585622787476,1232,0.0,30.0,0.0
7.19060206413269,775,0.0,30.0,0.0
7.200601100921631,1582,0.0,30.0,0.0
7.210601091384888,441,0.0,30.0,0.0
7.226329326629639,1585,0.0,30.0,0.0
7.236326456069946,429,0.0,30.0,0.0
7.246400833129883,1568,0.0,30.0,0.0
7.256235599517822,770,0.0,30.0,0.0
7.265836000442505,1608,0.0,30.0,0.0
7.270029783248901,906,0.0,30.0,0.0
7.285862922668457,1651,0.0,30.0,0.0
7.29633903503418,916,0.0,30.0,0.0
7.305498361587524,1683,0.0,30.0,0.0
7.3160271644592285,942,0.0,30.0,0.0
7.317006587982178,1681,0.0,30.0,0.0
7.327794075012207,900,0.0,30.0,0.0
7.3377909660339355,1686,0.0,30.0,0.0
7.347793340682983,907,0.0,30.0,0.0
7.357812881469727,1749,0.0,30.0,0.0
7.367790937423706,955,0.0,30.0,0.0
7.3778228759765625,1807,0.0,30.0,0.0
7.396515130996704,963,0.0,30.0,0.0
7.406522035598755,1822,0.0,30.0,0.0
7.416523218154907,957,0.0,30.0,0.0
7.4265217781066895,1783,0.0,30.0,0.0
7.4365222454071045,970,0.0,30.0,0.0
7.446521282196045,1856,0.0,30.0,0.0
7.456522226333618,937,0.0,30.0,0.0
7.466513156890869,1800,0.0,30.0,0.0
7.4762067794799805,988,0.0,30.0,0.0
7.48469090461731,1860,0.0,30.0,0.0
7.495819091796875,917,0.0,30.0,0.0
7.501357793807983,1840,0.0,30.0,0.0
7.509358644485474,865,0.0,30.0,0.0
7.526428699493408,1877,0.0,30.0,0.0
7.5363075733184814,1023,0.0,30.0,0.0
7.54630446434021,1869,0.0,30.0,0.0
7.556314468383789,1111,0.0,30.0,0.0
7.5663182735443115,1850,0.0,30.0,0.0
7.576324939727783,973,0.0,30.0,0.0
7.586336135864258,1878,0.0,30.0,0.0
7.596317768096924,1048,0.0,30.0,0.0
7.606341123580933,1890,0.0,30.0,0.0
7.616318225860596,986,0.0,30.0,0.0
7.626317977905273,1810,0.0,30.0,0.0
7.636340141296387,1003,0.0,30.0,0.0
7.646318197250366,1693,0.0,30.0,0.0
7.656317949295044,1091,0.0,30.0,0.0
7.666317462921143,1397,0.0,30.0,0.0
7.6770875453948975,1387,0.0,30.0,0.0
7.686110734939575,701,0.0,30.0,0.0
7.6956658363342285,1165,0.0,30.0,0.0
7.70250678062439,702,0.0,30.0,0.0
7.711603879928589,1131,0.0,30.0,0.0
7.71887731552124,538,0.0,30.0,0.0
7.735637903213501,1272,0.0,30.0,0.0
7.74592661857605,2205,0.0,30.0,0.0
7.746924638748169,1390,0.0,30.0,0.0
7.7662999629974365,2293,0.0,30.0,0.0
7.768718004226685,1520,0.0,30.0,0.0
7.7787251472473145,2162,0.0,30.0,0.0
7.788746118545532,1206,0.0,30.0,0.0
7.798723936080933,867,0.0,30.0,0.0
7.81011700630188,833,0.0,30.0,0.0
7.820132732391357,1051,0.0,30.0,0.0
7.830130577087402,626,0.0,30.0,0.0
7.840129613876343,1200,0.0,30.0,0.0
7.850161075592041,1999,0.0,30.0,0.0
7.860129356384277,1197,0.0,30.0,0.0
7.870130777359009,1805,0.0,30.0,0.0
7.8845534324646,1371,0.0,30.0,0.0
7.89645791053772,1449,0.0,30.0,0.0
7.903520107269287,1198,0.0,30.0,0.0
7.91156792640686,1303,0.0,30.0,0.0
7.919151544570923,1070,0.0,30.0,0.0
7.936482906341553,731,0.0,30.0,0.0
7.94649600982666,930,0.0,30.0,0.0
7.956330299377441,1874,0.0,30.0,0.0
7.966340065002441,752,0.0,30.0,0.0
7.9763429164886475,1921,0.0,30.0,0.0
7.986341714859009,592,0.0,30.0,0.0
7.986629009246826,1961,0.0,30.0,0.0
7.998821258544922,989,0.0,30.0,0.0
8.008833885192871,2032,0.0,30.0,0.0
8.018864870071411,1021,0.0,30.0,0.0
8.028833866119385,1328,0.0,30.0,0.0
8.038834810256958,603,0.0,30.0,0.0
8.048834323883057,1913,0.0,30.0,0.0
8.058833837509155,638,0.0,30.0,0.0
8.068835020065308,1679,0.0,30.0,0.0
8.07883596420288,839,0.0,30.0,0.0
8.095649003982544,1627,0.0,30.0,0.0
8.102529525756836,730,0.0,30.0,0.0
8.110544204711914,1761,0.0,30.0,0.0
8.11778450012207,1189,0.0,30.0,0.0
8.136529922485352,1776,0.0,30.0,0.0
8.146540880203247,1202,0.0,30.0,0.0
8.156540632247925,1310,0.0,30.0,0.0
8.166553735733032,1191,0.0,30.0,0.0
8.176551818847656,1251,0.0,30.0,0.0
8.186609029769897,1248,0.0,30.0,0.0
8.194154977798462,880,0.0,30.0,0.0
8.204169750213623,1609,0.0,30.0,0.0
8.216331481933594,1299,0.0,30.0,0.0
8.226344108581543,1427,0.0,30.0,0.0
8.23634386062622,880,0.0,30.0,0.0
8.246342897415161,1823,0.0,30.0,0.0
8.256343603134155,998,0.0,30.0,0.0
8.266721487045288,1778,0.0,30.0,0.0
8.267717838287354,979,0.0,30.0,0.0
8.277734518051147,1205,0.0,30.0,0.0
8.287733316421509,1223,0.0,30.0,0.0
8.297733306884766,1298,0.0,30.0,0.0
8.316612720489502,1344,0.0,30.0,0.0
8.319429397583008,1326,0.0,30.0,0.0
8.336400508880615,1237,0.0,30.0,0.0
8.34494924545288,1762,0.0,30.0,0.0
8.353108167648315,1487,0.0,30.0,0.0
8.363122701644897,1616,0.0,30.0,0.0
8.376305341720581,1995,0.0,30.0,0.0
8.38631796836853,1759,0.0,30.0,0.0
8.396317958831787,1218,0.0,30.0,0.0
8.406334638595581,1495,0.0,30.0,0.0
8.4163179397583,832,0.0,30.0,0.0
8.42665982246399,1744,0.0,30.0,0.0
8.427659511566162,395,0.0,30.0,0.0
8.437672138214111,1244,0.0,30.0,0.0
8.447671890258789,186,0.0,30.0,0.0
8.457672119140625,1089,0.0,30.0,0.0
8.467672348022461,2005,0.0,30.0,0.0
8.477674961090088,1703,0.0,30.0,0.0
8.487673282623291,2213,0.0,30.0,0.0
8.497672080993652,1788,0.0,30.0,0.0
8.509050130844116,2038,0.0,30.0,0.0
8.526040315628052,1651,0.0,30.0,0.0
8.535808563232422,1697,0.0,30.0,0.0
8.544836282730103,1575,0.0,30.0,0.0
8.551025867462158,1471,0.0,30.0,0.0
8.560014247894287,1357,0.0,30.0,0.0
8.569769620895386,1213,0.0,30.0,0.0
8.586329698562622,1374,0.0,30.0,0.0
8.596343278884888,1307,0.0,30.0,0.0
8.6063551902771,1311,0.0,30.0,0.0
8.616355180740356,1168,0.0,30.0,0.0
8.617787837982178,1338,0.0,30.0,0.0
8.627794027328491,946,0.0,30.0,0.0
8.637799501419067,1183,0.0,30.0,0.0
8.647794246673584,617,0.0,30.0,0.0
8.65779423713684,1043,0.0,30.0,0.0
8.667794227600098,1601,0.0,30.0,0.0
8.677793979644775,954,0.0,30.0,0.0
8.690263748168945,1063,0.0,30.0,0.0
8.706090450286865,843,0.0,30.0,0.0
8.707595109939575,903,0.0,30.0,0.0
8.717604875564575,801,0.0,30.0,0.0
8.735597133636475,629,0.0,30.0,0.0
8.738750219345093,929,0.0,30.0,0.0
8.753032684326172,542,0.0,30.0,0.0
8.761042356491089,1744,0.0,30.0,0.0
8.769663333892822,2006,0.0,30.0,0.0
8.77967357635498,783,0.0,30.0,0.0
8.789714813232422,567,0.0,30.0,0.0
8.799678325653076,949,0.0,30.0,0.0
8.809675216674805,665,0.0,30.0,0.0
8.819675207138062,998,0.0,30.0,0.0
8.82967758178711,805,0.0,30.0,0.0
8.846330642700195,1223,0.0,30.0,0.0
8.856342554092407,779,0.0,30.0,0.0
8.866343021392822,1181,0.0,30.0,0.0
8.876344919204712,762,0.0,30.0,0.0
8.886343002319336,1114,0.0,30.0,0.0
8.896344184875488,757,0.0,30.0,0.0
8.90634298324585,1120,0.0,30.0,0.0
8.916342496871948,630,0.0,30.0,0.0
8.926424741744995,1087,0.0,30.0,0.0
8.927423000335693,682,0.0,30.0,0.0
8.945815563201904,1201,0.0,30.0,0.0
8.953472375869751,623,0.0,30.0,0.0
8.961483240127563,1296,0.0,30.0,0.0
8.968627214431763,677,0.0,30.0,0.0
8.98635983467102,1242,0.0,30.0,0.0
8.996432304382324,753,0.0,30.0,0.0
9.006431579589844,1149,0.0,30.0,0.0
9.016432762145996,612,0.0,30.0,0.0
9.017747402191162,1357,0.0,30.0,0.0
9.027754306793213,759,0.0,30.0,0.0
9.037754774093628,1456,0.0,30.0,0.0
9.047754526138306,844,0.0,30.0,0.0
9.057754278182983,1439,0.0,30.0,0.0
9.067755222320557,909,0.0,30.0,0.0
9.077755212783813,1293,0.0,30.0,0.0
9.087754487991333,855,0.0,30.0,0.0
9.09775424003601,1320,0.0,30.0,0.0
9.112245082855225,655,0.0,30.0,0.0
9.122256755828857,1280,0.0,30.0,0.0
9.13225793838501,752,0.0,30.0,0.0
9.143696069717407,1307,0.0,30.0,0.0
9.156146764755249,1676,0.0,30.0,0.0
9.165707349777222,1319,0.0,30.0,0.0
9.169052839279175,1552,0.0,30.0,0.0
9.184253454208374,1261,0.0,30.0,0.0
9.195549249649048,1595,0.0,30.0,0.0
9.203026294708252,1299,0.0,30.0,0.0
9.21655797958374,1580,0.0,30.0,0.0
9.226478815078735,1129,0.0,30.0,0.0
9.235114097595215,1293,0.0,30.0,0.0
9.24516224861145,1549,0.0,30.0,0.0
9.255163192749023,1084,0.0,30.0,0.0
9.265495777130127,1152,0.0,30.0,0.0
9.276505708694458,784,0.0,30.0,0.0
9.286505699157715,976,0.0,30.0,0.0
9.29650592803955,433,0.0,30.0,0.0
9.305651426315308,1264,0.0,30.0,0.0
9.306649446487427,763,0.0,30.0,0.0
9.316660165786743,1797,0.0,30.0,0.0
9.326659917831421,2301,0.0,30.0,0.0
9.34565544128418,1721,0.0,30.0,0.0
9.346658945083618,1159,0.0,30.0,0.0
9.35668683052063,1456,0.0,30.0,0.0
9.376134157180786,889,0.0,30.0,0.0
9.386494398117065,1906,0.0,30.0,0.0
9.395498037338257,459,0.0,30.0,0.0
9.402190208435059,1968,0.0,30.0,0.0
9.410198450088501,2098,0.0,30.0,0.0
9.426622867584229,1524,0.0,30.0,0.0
9.436638832092285,1338,0.0,30.0,0.0
9.446639060974121,1942,0.0,30.0,0.0
9.456639766693115,1771,0.0,30.0,0.0
9.465655326843262,1952,0.0,30.0,0.0
9.468445062637329,1478,0.0,30.0,0.0
9.480628490447998,1899,0.0,30.0,0.0
9.49064040184021,2001,0.0,30.0,0.0
9.506473541259766,1786,0.0,30.0,0.0
9.516508340835571,1776,0.0,30.0,0.0
9.526508569717407,1728,0.0,30.0,0.0
9.527903079986572,2095,0.0,30.0,0.0
9.546456813812256,1881,0.0,30.0,0.0
9.556487321853638,2159,0.0,30.0,0.0
9.566487550735474,1977,0.0,30.0,0.0
9.576490640640259,2019,0.0,30.0,0.0
9.58565092086792,1982,0.0,30.0,0.0
9.59650731086731,2097,0.0,30.0,0.0
9.606461763381958,1952,0.0,30.0,0.0
9.614487409591675,1666,0.0,30.0,0.0
9.626570224761963,1973,0.0,30.0,0.0
9.635318279266357,1298,0.0,30.0,0.0
9.646525859832764,1950,0.0,30.0,0.0
9.655656576156616,1953,0.0,30.0,0.0
9.6664400100708,1971,0.0,30.0,0.0
9.67565107345581,2239,0.0,30.0,0.0
9.67664909362793,1917,0.0,30.0,0.0
9.696502923965454,2287,0.0,30.0,0.0
9.706500053405762,1939,0.0,30.0,0.0
9.715471506118774,1907,0.0,30.0,0.0
9.721951961517334,2018,0.0,30.0,0.0
9.736227035522461,2209,0.0,30.0,0.0
9.746440410614014,1973,0.0,30.0,0.0
9.755650520324707,2244,0.0,30.0,0.0
9.766483306884766,1983,0.0,30.0,0.0
9.775652885437012,2290,0.0,30.0,0.0
9.78645634651184,1977,0.0,30.0,0.0
9.795463800430298,2320,0.0,30.0,0.0
9.80589509010315,1954,0.0,30.0,0.0
9.808773040771484,2282,0.0,30.0,0.0
9.819982528686523,1988,0.0,30.0,0.0
9.836324691772461,2354,0.0,30.0,0.0
9.846606492996216,1491,0.0,30.0,0.0
9.8564612865448,2353,0.0,30.0,0.0
9.86562442779541,1311,0.0,30.0,0.0
9.876476526260376,1572,0.0,30.0,0.0
9.885627031326294,601,0.0,30.0,0.0
9.896499395370483,112,0.0,30.0,0.0
9.905630350112915,559,0.0,30.0,0.0
9.915634632110596,48,0.0,30.0,0.0
9.926492929458618,467,0.0,30.0,0.0
9.935624122619629,119,0.0,30.0,0.0
9.946441888809204,540,0.0,30.0,0.0
9.955631017684937,1791,0.0,30.0,0.0
9.966465473175049,571,0.0,30.0,0.0
9.975618362426758,2240,0.0,30.0,0.0
9.985650539398193,543,0.0,30.0,0.0
9.99562668800354,2288,0.0,30.0,0.0
10.005631685256958,630,0.0,30.0,0.0
10.015631198883057,2320,0.0,30.0,0.0
10.025634050369263,1283,0.0,30.0,0.0
10.035746574401855,2310,0.0,30.0,0.0
10.044735670089722,2011,0.0,30.0,0.0
10.052177429199219,1212,0.0,30.0,0.0
10.0656418800354,1189,0.0,30.0,0.0
10.076467990875244,304,0.0,30.0,0.0
10.085623264312744,1335,0.0,30.0,0.0
10.095624923706055,2167,0.0,30.0,0.0
10.106440305709839,834,0.0,30.0,0.0
10.115628719329834,2187,0.0,30.0,0.0
10.126491069793701,1183,0.0,30.0,0.0
10.135628700256348,271,0.0,30.0,0.0
10.146451950073242,686,0.0,30.0,0.0
10.155639410018921,446,0.0,30.0,0.0
10.16566777229309,847,0.0,30.0,0.0
10.175668239593506,506,0.0,30.0,0.0
10.18562388420105,825,0.0,30.0,0.0
10.195626258850098,464,0.0,30.0,0.0
10.205626964569092,882,0.0,30.0,0.0
10.215639114379883,449,0.0,30.0,0.0
10.225837230682373,795,0.0,30.0,0.0
10.236589431762695,371,0.0,30.0,0.0
10.245223045349121,722,0.0,30.0,0.0
10.255503416061401,336,0.0,30.0,0.0
10.265624284744263,784,0.0,30.0,0.0
10.276484966278076,304,0.0,30.0,0.0
10.285639762878418,966,0.0,30.0,0.0
10.295623779296875,276,0.0,30.0,0.0
10.305632591247559,942,0.0,30.0,0.0
10.315624952316284,371,0.0,30.0,0.0
10.325625658035278,835,0.0,30.0,0.0
10.335630655288696,419,0.0,30.0,0.0
10.345624208450317,811,0.0,30.0,0.0
10.355629682540894,307,0.0,30.0,0.0
10.366474866867065,971,0.0,30.0,0.0
10.37562870979309,306,0.0,30.0,0.0
10.385620594024658,922,0.0,30.0,0.0
10.395672082901001,339,0.0,30.0,0.0
10.405623197555542,870,0.0,30.0,0.0
10.415632247924805,311,0.0,30.0,0.0
10.425598859786987,869,0.0,30.0,0.0
10.43612265586853,409,0.0,30.0,0.0
10.446150064468384,801,0.0,30.0,0.0
10.453107595443726,451,0.0,30.0,0.0
10.465595006942749,825,0.0,30.0,0.0
10.469424486160278,464,0.0,30.0,0.0
10.485583782196045,926,0.0,30.0,0.0
10.49559736251831,459,0.0,30.0,0.0
10.505643606185913,912,0.0,30.0,0.0
10.515662908554077,486,0.0,30.0,0.0
10.525597333908081,800,0.0,30.0,0.0
10.53562879562378,507,0.0,30.0,0.0
10.545630693435669,836,0.0,30.0,0.0
10.555624723434448,507,0.0,30.0,0.0
10.565605640411377,841,0.0,30.0,0.0
10.575639963150024,528,0.0,30.0,0.0
10.5856294631958,899,0.0,30.0,0.0
10.595595359802246,545,0.0,30.0,0.0
10.605629444122314,939,0.0,30.0,0.0
10.615690231323242,661,0.0,30.0,0.0
10.625630140304565,1446,0.0,30.0,0.0
10.636173486709595,1978,0.0,30.0,0.0
10.640478610992432,1507,0.0,30.0,0.0
10.655609607696533,1380,0.0,30.0,0.0
10.665641784667969,1392,0.0,30.0,0.0
10.6686110496521,584,0.0,30.0,0.0
10.68569564819336,1449,0.0,30.0,0.0
10.696465253829956,574,0.0,30.0,0.0
10.706604957580566,1392,0.0,30.0,0.0
10.71560001373291,813,0.0,30.0,0.0
10.72564172744751,1372,0.0,30.0,0.0
10.735597848892212,752,0.0,30.0,0.0
10.745659351348877,1424,0.0,30.0,0.0
10.748792171478271,887,0.0,30.0,0.0
10.766323566436768,1420,0.0,30.0,0.0
10.775639533996582,1003,0.0,30.0,0.0
10.785573244094849,1261,0.0,30.0,0.0
10.795600414276123,914,0.0,30.0,0.0
10.805609464645386,1114,0.0,30.0,0.0
10.81559705734253,758,0.0,30.0,0.0
10.825600385665894,1022,0.0,30.0,0.0
10.835575103759766,685,0.0,30.0,0.0
10.845765352249146,880,0.0,30.0,0.0
10.856561660766602,606,0.0,30.0,0.0
10.865598440170288,848,0.0,30.0,0.0
10.876306772232056,647,0.0,30.0,0.0
10.884989023208618,1334,0.0,30.0,0.0
10.895569086074829,891,0.0,30.0,0.0
10.905599117279053,1060,0.0,30.0,0.0
10.91561508178711,529,0.0,30.0,0.0
10.925597190856934,1200,0.0,30.0,0.0
10.935578107833862,674,0.0,30.0,0.0
10.945615291595459,1163,0.0,30.0,0.0
10.955579042434692,619,0.0,30.0,0.0
10.96559762954712,1076,0.0,30.0,0.0
10.97561001777649,691,0.0,30.0,0.0
10.985606908798218,944,0.0,30.0,0.0
10.995604038238525,722,0.0,30.0,0.0
11.005571603775024,1378,0.0,30.0,0.0
11.015594720840454,789,0.0,30.0,0.0
11.017590999603271,1159,0.0,30.0,0.0
11.035634517669678,818,0.0,30.0,0.0
11.046585321426392,1185,0.0,30.0,0.0
11.055941581726074,800,0.0,30.0,0.0
11.059468984603882,1222,0.0,30.0,0.0
11.075583219528198,726,0.0,30.0,0.0
11.086324691772461,1268,0.0,30.0,0.0
11.095586061477661,625,0.0,30.0,0.0
11.105623722076416,1262,0.0,30.0,0.0
11.115598678588867,885,0.0,30.0,0.0
11.120638132095337,1327,0.0,30.0,0.0
11.13548231124878,950,0.0,30.0,0.0
11.145593404769897,1401,0.0,30.0,0.0
11.15563440322876,1183,0.0,30.0,0.0
11.165539503097534,1389,0.0,30.0,0.0
11.16753602027893,1392,0.0,30.0,0.0
11.185501337051392,1408,0.0,30.0,0.0
11.195607423782349,1551,0.0,30.0,0.0
11.205591440200806,1457,0.0,30.0,0.0
11.215606212615967,1557,0.0,30.0,0.0
11.225599765777588,1481,0.0,30.0,0.0
11.235608577728271,1721,0.0,30.0,0.0
11.245562314987183,1472,0.0,30.0,0.0
11.255576133728027,1794,0.0,30.0,0.0
11.266284465789795,1548,0.0,30.0,0.0
11.27613639831543,1931,0.0,30.0,0.0
11.286298274993896,1507,0.0,30.0,0.0
11.29655647277832,1931,0.0,30.0,0.0
11.302550077438354,1132,0.0,30.0,0.0
11.315608263015747,2037,0.0,30.0,0.0
11.32656478881836,1125,0.0,30.0,0.0
11.335570335388184,2086,0.0,30.0,0.0
11.34557843208313,1164,0.0,30.0,0.0
11.355584859848022,2141,0.0,30.0,0.0
11.365539073944092,1441,0.0,30.0,0.0
11.376564025878906,2108,0.0,30.0,0.0
11.385538816452026,1107,0.0,30.0,0.0
11.396581649780273,2189,0.0,30.0,0.0
11.40556812286377,1550,0.0,30.0,0.0
11.41558575630188,1920,0.0,30.0,0.0
11.426563024520874,1198,0.0,30.0,0.0
11.435580492019653,1689,0.0,30.0,0.0
11.445570707321167,1249,0.0,30.0,0.0
11.455606460571289,2119,0.0,30.0,0.0
11.465564727783203,1712,0.0,30.0,0.0
11.47587776184082,2429,0.0,30.0,0.0
11.486453533172607,1772,0.0,30.0,0.0
11.496564149856567,2545,0.0,30.0,0.0
11.505622863769531,1774,0.0,30.0,0.0
11.515570878982544,2587,0.0,30.0,0.0
11.525583267211914,1742,0.0,30.0,0.0
11.535559892654419,2544,0.0,30.0,0.0
11.545568466186523,1739,0.0,30.0,0.0
11.555564880371094,2416,0.0,30.0,0.0
11.565634489059448,1552,0.0,30.0,0.0
11.575584888458252,2538,0.0,30.0,0.0
11.585569620132446,1699,0.0,30.0,0.0
11.586567878723145,2549,0.0,30.0,0.0
11.606563568115234,1727,0.0,30.0,0.0
11.615567684173584,2390,0.0,30.0,0.0
11.625581502914429,1595,0.0,30.0,0.0
11.636563301086426,2448,0.0,30.0,0.0
11.64657187461853,1802,0.0,30.0,0.0
11.65556812286377,2377,0.0,30.0,0.0
11.65556812286377,1762,0.0,30.0,0.0
11.67557144165039,2320,0.0,30.0,0.0
11.686010122299194,1509,0.0,30.0,0.0
11.695575475692749,2279,0.0,30.0,0.0
11.706298112869263,1439,0.0,30.0,0.0
11.716563701629639,2193,0.0,30.0,0.0
11.726405143737793,1343,0.0,30.0,0.0
11.735626220703125,1891,0.0,30.0,0.0
11.745564937591553,1358,0.0,30.0,0.0
11.74656343460083,1805,0.0,30.0,0.0
11.765559434890747,1374,0.0,30.0,0.0
11.775578498840332,1939,0.0,30.0,0.0
11.78633165359497,1490,0.0,30.0,0.0
11.795608043670654,2471,0.0,30.0,0.0
11.80655026435852,1295,0.0,30.0,0.0
11.815563201904297,2446,0.0,30.0,0.0
11.825565099716187,1022,0.0,30.0,0.0
11.83654236793518,2418,0.0,30.0,0.0
11.846539735794067,2009,0.0,30.0,0.0
11.85556697845459,1974,0.0,30.0,0.0
11.865564823150635,2090,0.0,30.0,0.0
11.87556529045105,1590,0.0,30.0,0.0
11.885554313659668,2101,0.0,30.0,0.0
11.895430088043213,1991,0.0,30.0,0.0
11.90269923210144,2095,0.0,30.0,0.0
11.916563987731934,1799,0.0,30.0,0.0
11.925562620162964,1811,0.0,30.0,0.0
11.935582876205444,1809,0.0,30.0,0.0
11.946562051773071,2096,0.0,30.0,0.0
11.95553708076477,1617,0.0,30.0,0.0
11.966548442840576,2097,0.0,30.0,0.0
11.976552248001099,1574,0.0,30.0,0.0
11.985564947128296,2121,0.0,30.0,0.0
11.996567249298096,1402,0.0,30.0,0.0
12.006541728973389,2113,0.0,30.0,0.0
12.015567541122437,1307,0.0,30.0,0.0
12.025590419769287,2125,0.0,30.0,0.0
12.03655195236206,1131,0.0,30.0,0.0
12.045541286468506,2150,0.0,30.0,0.0
12.055538177490234,1182,0.0,30.0,0.0
12.065577268600464,2157,0.0,30.0,0.0
12.075571775436401,1264,0.0,30.0,0.0
12.086563348770142,1324,0.0,30.0,0.0
12.095543146133423,1372,0.0,30.0,0.0
12.106070756912231,294,0.0,30.0,0.0
12.109829902648926,1072,0.0,30.0,0.0
12.126033544540405,272,0.0,30.0,0.0
12.13554048538208,790,0.0,30.0,0.0
12.145582675933838,242,0.0,30.0,0.0
12.156809568405151,1904,0.0,30.0,0.0
12.165679931640625,2300,0.0,30.0,0.0
12.17667531967163,2023,0.0,30.0,0.0
12.18566370010376,2257,0.0,30.0,0.0
12.195682525634766,1857,0.0,30.0,0.0
12.205659627914429,1978,0.0,30.0,0.0
12.216787099838257,1607,0.0,30.0,0.0
12.225565195083618,1740,0.0,30.0,0.0
12.235561609268188,1456,0.0,30.0,0.0
12.245570421218872,1283,0.0,30.0,0.0
12.25656533241272,1394,0.0,30.0,0.0
12.265565872192383,1261,0.0,30.0,0.0
12.276585102081299,1235,0.0,30.0,0.0
12.286539316177368,1107,0.0,30.0,0.0
12.296226978302002,1296,0.0,30.0,0.0
12.305564880371094,874,0.0,30.0,0.0
12.316067695617676,1221,0.0,30.0,0.0
12.325552225112915,573,0.0,30.0,0.0
12.336548566818237,1179,0.0,30.0,0.0
12.346548795700073,1994,0.0,30.0,0.0
12.3555748462677,1058,0.0,30.0,0.0
12.365569114685059,1774,0.0,30.0,0.0
12.37556767463684,1030,0.0,30.0,0.0
12.376564979553223,1035,0.0,30.0,0.0
12.386728286743164,723,0.0,30.0,0.0
12.405554294586182,679,0.0,30.0,0.0
12.415587663650513,1808,0.0,30.0,0.0
12.425565242767334,2148,0.0,30.0,0.0
12.436555624008179,1898,0.0,30.0,0.0
12.446539402008057,1558,0.0,30.0,0.0
12.455586194992065,1835,0.0,30.0,0.0
12.465590000152588,2128,0.0,30.0,0.0
12.475558757781982,1793,0.0,30.0,0.0
12.485583543777466,2112,0.0,30.0,0.0
12.495583295822144,752,0.0,30.0,0.0
12.505537986755371,530,0.0,30.0,0.0
12.51553988456726,865,0.0,30.0,0.0
12.525200605392456,594,0.0,30.0,0.0
12.536075592041016,745,0.0,30.0,0.0
12.544136762619019,606,0.0,30.0,0.0
12.555548429489136,710,0.0,30.0,0.0
12.56456971168518,572,0.0,30.0,0.0
12.57557725906372,733,0.0,30.0,0.0
12.5865478515625,2185,0.0,30.0,0.0
12.59531021118164,836,0.0,30.0,0.0
12.60652494430542,2001,0.0,30.0,0.0
12.615537881851196,930,0.0,30.0,0.0
12.625584363937378,2224,0.0,30.0,0.0
12.626582145690918,971,0.0,30.0,0.0
12.645540952682495,482,0.0,30.0,0.0
12.646539211273193,997,0.0,30.0,0.0
12.665538311004639,547,0.0,30.0,0.0
12.676546573638916,1033,0.0,30.0,0.0
12.676546573638916,540,0.0,30.0,0.0
12.69655156135559,1071,0.0,30.0,0.0
12.706541776657104,1939,0.0,30.0,0.0
12.716551303863525,1125,0.0,30.0,0.0
12.716551303863525,525,0.0,30.0,0.0
12.736172437667847,1068,0.0,30.0,0.0
12.74553894996643,563,0.0,30.0,0.0
12.752177715301514,1093,0.0,30.0,0.0
12.76573896408081,589,0.0,30.0,0.0
12.775449275970459,1072,0.0,30.0,0.0
12.784734010696411,577,0.0,30.0,0.0
12.795451641082764,1168,0.0,30.0,0.0
12.796447038650513,297,0.0,30.0,0.0
12.806460857391357,783,0.0,30.0,0.0
12.825649499893188,2174,0.0,30.0,0.0
12.825649499893188,790,0.0,30.0,0.0
12.845457077026367,1838,0.0,30.0,0.0
12.84645414352417,797,0.0,30.0,0.0
12.865694999694824,1552,0.0,30.0,0.0
12.866695404052734,208,0.0,30.0,0.0
12.885430812835693,1230,0.0,30.0,0.0
12.895431280136108,2230,0.0,30.0,0.0
12.905552864074707,1584,0.0,30.0,0.0
12.915586471557617,2097,0.0,30.0,0.0
12.926593780517578,1402,0.0,30.0,0.0
12.935557126998901,1763,0.0,30.0,0.0
12.936563730239868,855,0.0,30.0,0.0
12.951967239379883,1185,0.0,30.0,0.0
12.964496612548828,522,0.0,30.0,0.0
12.975579261779785,1267,0.0,30.0,0.0
12.983535766601562,256,0.0,30.0,0.0
12.995607376098633,1473,0.0,30.0,0.0
13.005580425262451,2211,0.0,30.0,0.0
13.015580177307129,1869,0.0,30.0,0.0
13.025606870651245,1786,0.0,30.0,0.0
13.03557825088501,1627,0.0,30.0,0.0
13.036576747894287,538,0.0,30.0,0.0
13.05558466911316,1493,0.0,30.0,0.0
13.056903839111328,261,0.0,30.0,0.0
13.075605630874634,1878,0.0,30.0,0.0
13.076604127883911,405,0.0,30.0,0.0
13.09561014175415,1342,0.0,30.0,0.0
13.105581760406494,2205,0.0,30.0,0.0
13.115543603897095,2082,0.0,30.0,0.0
13.125472784042358,1923,0.0,30.0,0.0
13.135551929473877,2367,0.0,30.0,0.0
13.14554476737976,1643,0.0,30.0,0.0
13.155511617660522,1744,0.0,30.0,0.0
13.165846347808838,1680,0.0,30.0,0.0
13.175503969192505,1940,0.0,30.0,0.0
13.185377359390259,1072,0.0,30.0,0.0
13.195568799972534,1121,0.0,30.0,0.0
13.205550193786621,1188,0.0,30.0,0.0
13.214565753936768,845,0.0,30.0,0.0
13.217809677124023,1219,0.0,30.0,0.0
13.235311031341553,960,0.0,30.0,0.0
13.245560884475708,1244,0.0,30.0,0.0
13.24795150756836,885,0.0,30.0,0.0
13.265583992004395,1216,0.0,30.0,0.0
13.266582012176514,894,0.0,30.0,0.0
13.285566568374634,1195,0.0,30.0,0.0
13.286564826965332,844,0.0,30.0,0.0
13.305686950683594,1313,0.0,30.0,0.0
13.307679891586304,798,0.0,30.0,0.0
13.32558822631836,1346,0.0,30.0,0.0
13.32658576965332,910,0.0,30.0,0.0
13.345568656921387,1312,0.0,30.0,0.0
13.34701943397522,843,0.0,30.0,0.0
13.365563154220581,1290,0.0,30.0,0.0
13.366560935974121,931,0.0,30.0,0.0
13.385588884353638,1307,0.0,30.0,0.0
13.395169496536255,959,0.0,30.0,0.0
13.40557050704956,1351,0.0,30.0,0.0
13.4155912399292,1017,0.0,30.0,0.0
13.41930603981018,1313,0.0,30.0,0.0
13.435551166534424,1100,0.0,30.0,0.0
13.445564270019531,1349,0.0,30.0,0.0
13.455595254898071,1136,0.0,30.0,0.0
13.465594291687012,1495,0.0,30.0,0.0
13.475593090057373,1152,0.0,30.0,0.0
13.485583543777466,1449,0.0,30.0,0.0
13.495586633682251,1137,0.0,30.0,0.0
13.505568504333496,1468,0.0,30.0,0.0
13.51555848121643,1179,0.0,30.0,0.0
13.525586605072021,1503,0.0,30.0,0.0
13.535559177398682,1200,0.0,30.0,0.0
13.545560121536255,1535,0.0,30.0,0.0
13.55555534362793,1151,0.0,30.0,0.0
13.565624713897705,1170,0.0,30.0,0.0
13.575633525848389,1266,0.0,30.0,0.0
13.576631784439087,765,0.0,30.0,0.0
13.58664059638977,912,0.0,30.0,0.0
13.600979804992676,1741,0.0,30.0,0.0
13.615573167800903,1728,0.0,30.0,0.0
13.625719785690308,1814,0.0,30.0,0.0
13.635610103607178,1486,0.0,30.0,0.0
13.645593881607056,1545,0.0,30.0,0.0
13.651372909545898,1296,0.0,30.0,0.0
13.66556429862976,1456,0.0,30.0,0.0
13.675633668899536,1394,0.0,30.0,0.0
13.685626029968262,1582,0.0,30.0,0.0
13.695557355880737,1424,0.0,30.0,0.0
13.705564022064209,1618,0.0,30.0,0.0
13.715555906295776,1433,0.0,30.0,0.0
13.725623369216919,1637,0.0,30.0,0.0
13.735629320144653,1344,0.0,30.0,0.0
13.745588302612305,1295,0.0,30.0,0.0
13.755629301071167,1291,0.0,30.0,0.0
13.765496730804443,1808,0.0,30.0,0.0
13.775618314743042,1526,0.0,30.0,0.0
13.785640716552734,1787,0.0,30.0,0.0
13.795636415481567,1499,0.0,30.0,0.0
13.805634021759033,1726,0.0,30.0,0.0
13.815626382827759,1168,0.0,30.0,0.0
13.826199531555176,1442,0.0,30.0,0.0
13.833315134048462,846,0.0,30.0,0.0
13.841317653656006,932,0.0,30.0,0.0
13.85544729232788,544,0.0,30.0,0.0
13.86585807800293,1267,0.0,30.0,0.0
13.86781358718872,558,0.0,30.0,0.0
13.877845764160156,0,0.0,30.0,0.0
13.887825727462769,523,0.0,30.0,0.0
13.897825956344604,0,0.0,30.0,0.0
13.907826900482178,612,0.0,30.0,0.0
13.917856454849243,0,0.0,30.0,0.0
13.927825927734375,677,0.0,30.0,0.0
13.937825918197632,0,0.0,30.0,0.0
13.947825908660889,727,0.0,30.0,0.0
13.957825660705566,0,0.0,30.0,0.0
13.96783709526062,865,0.0,30.0,0.0
13.97782564163208,0,0.0,30.0,0.0
13.987825870513916,823,0.0,30.0,0.0
13.997827053070068,0,0.0,30.0,0.0
14.00782585144043,886,0.0,30.0,0.0
14.017827033996582,0,0.0,30.0,0.0
14.034406661987305,824,0.0,30.0,0.0
14.04285717010498,0,0.0,30.0,0.0
14.052792310714722,912,0.0,30.0,0.0
14.060805082321167,0,0.0,30.0,0.0
14.067662715911865,854,0.0,30.0,0.0
14.084375381469727,0,0.0,30.0,0.0
14.095493078231812,786,0.0,30.0,0.0
14.09648847579956,639,0.0,30.0,0.0
14.110227108001709,825,0.0,30.0,0.0
14.117512702941895,0,0.0,30.0,0.0
14.127519369125366,979,0.0,30.0,0.0
14.137524604797363,0,0.0,30.0,0.0
14.14751935005188,862,0.0,30.0,0.0
14.157519578933716,0,0.0,30.0,0.0
14.167519569396973,889,0.0,30.0,0.0
14.177519798278809,0,0.0,30.0,0.0
14.195556879043579,1006,0.0,30.0,0.0
14.196554899215698,0,0.0,30.0,0.0
14.206563711166382,1174,0.0,30.0,0.0
14.216585874557495,0,0.0,30.0,0.0
14.226563692092896,1102,0.0,30.0,0.0
14.244644165039062,0,0.0,30.0,0.0
14.251603841781616,1185,0.0,30.0,0.0
14.261057615280151,0,0.0,30.0,0.0
14.26910400390625,1365,0.0,30.0,0.0
14.285323143005371,0,0.0,30.0,0.0
14.295334339141846,1138,0.0,30.0,0.0
14.305352687835693,0,0.0,30.0,0.0
14.31533432006836,452,0.0,30.0,0.0
14.325331687927246,0,0.0,30.0,0.0
14.33112120628357,2,0.0,30.0,0.0
14.3411283493042,0,0.0,30.0,0.0
14.355595350265503,2576,0.0,30.0,0.0
14.356593370437622,0,0.0,30.0,0.0
14.375335454940796,2299,0.0,30.0,0.0
14.376335620880127,0,0.0,30.0,0.0
14.386346101760864,2031,0.0,30.0,0.0
14.396345138549805,949,0.0,30.0,0.0
14.40634536743164,2001,0.0,30.0,0.0
14.42559266090393,1041,0.0,30.0,0.0
14.43560242652893,2007,0.0,30.0,0.0
14.436609983444214,674,0.0,30.0,0.0
14.449033975601196,2079,0.0,30.0,0.0
14.45759654045105,0,0.0,30.0,0.0
14.47485876083374,913,0.0,30.0,0.0
14.485304832458496,0,0.0,30.0,0.0
14.493309259414673,2256,0.0,30.0,0.0
14.501230001449585,0,0.0,30.0,0.0
14.51655101776123,2369,0.0,30.0,0.0
14.52528190612793,0,0.0,30.0,0.0
14.535382270812988,2205,0.0,30.0,0.0
14.545387506484985,0,0.0,30.0,0.0
14.546384334564209,2126,0.0,30.0,0.0
14.556439638137817,0,0.0,30.0,0.0
14.56643557548523,2279,0.0,30.0,0.0
14.576427459716797,0,0.0,30.0,0.0
14.586436748504639,2240,0.0,30.0,0.0
14.596427202224731,0,0.0,30.0,0.0
14.606693744659424,2270,0.0,30.0,0.0
14.618906259536743,0,0.0,30.0,0.0
14.629050970077515,2304,0.0,30.0,0.0
14.639047145843506,0,0.0,30.0,0.0
14.64905333518982,2413,0.0,30.0,0.0
14.661579847335815,0,0.0,30.0,0.0
14.675004005432129,2441,0.0,30.0,0.0
14.6846342086792,0,0.0,30.0,0.0
14.69364857673645,2420,0.0,30.0,0.0
14.70529818534851,0,0.0,30.0,0.0
14.713309288024902,2393,0.0,30.0,0.0
14.721341609954834,0,0.0,30.0,0.0
14.734065532684326,2380,0.0,30.0,0.0
14.744063138961792,0,0.0,30.0,0.0
14.755380153656006,2387,0.0,30.0,0.0
14.765385150909424,0,0.0,30.0,0.0
14.767792463302612,2355,0.0,30.0,0.0
14.777949094772339,0,0.0,30.0,0.0
14.787932872772217,2455,0.0,30.0,0.0
14.797932386398315,0,0.0,30.0,0.0
14.81149697303772,2455,0.0,30.0,0.0
14.821503162384033,0,0.0,30.0,0.0
14.83150339126587,2438,0.0,30.0,0.0
14.845326662063599,0,0.0,30.0,0.0
14.855337858200073,2430,0.0,30.0,0.0
14.86533498764038,0,0.0,30.0,0.0
14.875548839569092,2420,0.0,30.0,0.0
14.884346008300781,0,0.0,30.0,0.0
14.894289493560791,2376,0.0,30.0,0.0
14.90230917930603,0,0.0,30.0,0.0
14.910315036773682,2401,0.0,30.0,0.0
14.917823553085327,0,0.0,30.0,0.0
14.934865236282349,2316,0.0,30.0,0.0
14.944885730743408,0,0.0,30.0,0.0
14.954684019088745,2107,0.0,30.0,0.0
14.955689430236816,0,0.0,30.0,0.0
14.965701341629028,2220,0.0,30.0,0.0
14.975712776184082,0,0.0,30.0,0.0
14.985700368881226,1991,0.0,30.0,0.0
14.995701313018799,0,0.0,30.0,0.0
15.005700826644897,1387,0.0,30.0,0.0
15.015701055526733,0,0.0,30.0,0.0
15.025700330734253,2132,0.0,30.0,0.0
15.035701513290405,2423,0.0,30.0,0.0
15.045701265335083,2263,0.0,30.0,0.0
15.055700063705444,2615,0.0,30.0,0.0
15.065701246261597,1396,0.0,30.0,0.0
15.075700044631958,0,0.0,30.0,0.0
15.095463037490845,91,0.0,30.0,0.0
15.100805521011353,0,0.0,30.0,0.0
15.11110806465149,89,0.0,30.0,0.0
15.11896562576294,0,0.0,30.0,0.0
15.134135007858276,235,0.0,30.0,0.0
15.14414644241333,0,0.0,30.0,0.0
15.155300855636597,428,0.0,30.0,0.0
15.165328979492188,0,0.0,30.0,0.0
15.175342559814453,522,0.0,30.0,0.0
15.18532943725586,0,0.0,30.0,0.0
15.195329189300537,482,0.0,30.0,0.0
15.205329179763794,0,0.0,30.0,0.0
15.215327978134155,690,0.0,30.0,0.0
15.225339412689209,0,0.0,30.0,0.0
15.235340595245361,377,0.0,30.0,0.0
15.245339155197144,0,0.0,30.0,0.0
15.255339860916138,310,0.0,30.0,0.0
15.265336751937866,0,0.0,30.0,0.0
15.271633386611938,291,0.0,30.0,0.0
15.280056953430176,0,0.0,30.0,0.0
15.290074825286865,183,0.0,30.0,0.0
15.302696704864502,0,0.0,30.0,0.0
15.314489603042603,271,0.0,30.0,0.0
15.318785429000854,0,0.0,30.0,0.0
15.333088159561157,347,0.0,30.0,0.0
15.343191623687744,0,0.0,30.0,0.0
15.351835250854492,258,0.0,30.0,0.0
15.365299463272095,0,0.0,30.0,0.0
15.37531328201294,95,0.0,30.0,0.0
15.385579586029053,0,0.0,30.0,0.0
15.392704486846924,1933,0.0,30.0,0.0
15.402717590332031,2085,0.0,30.0,0.0
15.412717819213867,2423,0.0,30.0,0.0
15.425302982330322,2339,0.0,30.0,0.0
15.435336828231812,2282,0.0,30.0,0.0
15.445338010787964,2304,0.0,30.0,0.0
15.455320596694946,2208,0.0,30.0,0.0
15.46533727645874,2261,0.0,30.0,0.0
15.475311756134033,2307,0.0,30.0,0.0
15.485302925109863,2197,0.0,30.0,0.0
15.495442390441895,2315,0.0,30.0,0.0
15.496439933776855,2247,0.0,30.0,0.0
15.51482105255127,2238,0.0,30.0,0.0
15.517627000808716,2253,0.0,30.0,0.0
15.535590410232544,2181,0.0,30.0,0.0
15.54477596282959,2262,0.0,30.0,0.0
15.550946235656738,2170,0.0,30.0,0.0
15.560956954956055,2249,0.0,30.0,0.0
15.570955991744995,2151,0.0,30.0,0.0
15.580955505371094,2002,0.0,30.0,0.0
15.59098744392395,496,0.0,30.0,0.0
15.60098385810852,1738,0.0,30.0,0.0
15.610955953598022,1063,0.0,30.0,0.0
15.622237920761108,1920,0.0,30.0,0.0
15.632380247116089,1410,0.0,30.0,0.0
15.645328521728516,1671,0.0,30.0,0.0
15.655346870422363,2053,0.0,30.0,0.0
15.6653413772583,1898,0.0,30.0,0.0
15.6753408908844,1951,0.0,30.0,0.0
15.685339450836182,1949,0.0,30.0,0.0
15.695343017578125,1482,0.0,30.0,0.0
15.70534086227417,2011,0.0,30.0,0.0
15.715342998504639,1123,0.0,30.0,0.0
15.725430965423584,2000,0.0,30.0,0.0
15.735226392745972,416,0.0,30.0,0.0
15.745238065719604,1980,0.0,30.0,0.0
15.755324125289917,351,0.0,30.0,0.0
15.76333498954773,1946,0.0,30.0,0.0
15.767579317092896,3985,0.0,30.0,0.0
15.777589559555054,447,0.0,30.0,0.0
15.790001630783081,4095,0.0,30.0,0.0
15.800006628036499,474,0.0,30.0,0.0
15.811254501342773,853,0.0,30.0,0.0
15.821260929107666,1689,0.0,30.0,0.0
15.831262111663818,592,0.0,30.0,0.0
15.84126091003418,1554,0.0,30.0,0.0
15.851261615753174,331,0.0,30.0,0.0
15.861261367797852,1553,0.0,30.0,0.0
15.875328540802002,206,0.0,30.0,0.0
15.885339498519897,1328,0.0,30.0,0.0
15.895541191101074,589,0.0,30.0,0.0
15.905397176742554,1359,0.0,30.0,0.0
15.906391382217407,833,0.0,30.0,0.0
15.917649030685425,1273,0.0,30.0,0.0
15.92765736579895,2259,0.0,30.0,0.0
15.945452690124512,481,0.0,30.0,0.0
15.952080726623535,4095,0.0,30.0,0.0
15.960093975067139,464,0.0,30.0,0.0
15.975345849990845,4095,0.0,30.0,0.0
15.985250234603882,417,0.0,30.0,0.0
15.986258029937744,3312,0.0,30.0,0.0
15.996264934539795,373,0.0,30.0,0.0
16.006264686584473,96,0.0,30.0,0.0
16.016265153884888,884,0.0,30.0,0.0
16.026264667510986,317,0.0,30.0,0.0
16.036264896392822,592,0.0,30.0,0.0
16.0462646484375,243,0.0,30.0,0.0
16.056264877319336,1056,0.0,30.0,0.0
16.066264629364014,292,0.0,30.0,0.0
16.07626485824585,1098,0.0,30.0,0.0
16.086264848709106,432,0.0,30.0,0.0
16.096264839172363,1411,0.0,30.0,0.0
16.108344316482544,308,0.0,30.0,0.0
16.11835789680481,1552,0.0,30.0,0.0
16.128642797470093,637,0.0,30.0,0.0
16.139799118041992,1279,0.0,30.0,0.0
16.15544843673706,695,0.0,30.0,0.0
16.164393663406372,1363,0.0,30.0,0.0
16.16728377342224,573,0.0,30.0,0.0
16.18395471572876,1419,0.0,30.0,0.0
16.194003343582153,695,0.0,30.0,0.0
16.204367637634277,1245,0.0,30.0,0.0
16.215433359146118,723,0.0,30.0,0.0
16.21644639968872,1359,0.0,30.0,0.0
16.22645330429077,704,0.0,30.0,0.0
16.236454486846924,1261,0.0,30.0,0.0
16.24645447731018,853,0.0,30.0,0.0
16.256453275680542,1451,0.0,30.0,0.0
16.266453504562378,757,0.0,30.0,0.0
16.27645182609558,1326,0.0,30.0,0.0
16.287623405456543,842,0.0,30.0,0.0
16.29903793334961,1141,0.0,30.0,0.0
16.309053421020508,714,0.0,30.0,0.0
16.319053173065186,1273,0.0,30.0,0.0
16.32905340194702,954,0.0,30.0,0.0
16.339077711105347,1314,0.0,30.0,0.0
16.34905433654785,959,0.0,30.0,0.0
16.36490535736084,1296,0.0,30.0,0.0
16.370376348495483,873,0.0,30.0,0.0
16.385403156280518,1306,0.0,30.0,0.0
16.394601106643677,966,0.0,30.0,0.0
16.401520013809204,1313,0.0,30.0,0.0
16.415069580078125,952,0.0,30.0,0.0
16.419581174850464,1376,0.0,30.0,0.0
16.429632902145386,1014,0.0,30.0,0.0
16.445516347885132,1703,0.0,30.0,0.0
16.45556092262268,1041,0.0,30.0,0.0
16.46553659439087,1436,0.0,30.0,0.0
16.475523710250854,1030,0.0,30.0,0.0
16.485523223876953,1047,0.0,30.0,0.0
16.495525360107422,1034,0.0,30.0,0.0
16.505524396896362,978,0.0,30.0,0.0
16.51552414894104,1482,0.0,30.0,0.0
16.525524377822876,910,0.0,30.0,0.0
16.530603170394897,1262,0.0,30.0,0.0
16.540613889694214,727,0.0,30.0,0.0
16.550613164901733,1225,0.0,30.0,0.0
16.56061363220215,2122,0.0,30.0,0.0
16.57544183731079,1270,0.0,30.0,0.0
16.585307598114014,2318,0.0,30.0,0.0
16.593312978744507,1535,0.0,30.0,0.0
16.5995032787323,2097,0.0,30.0,0.0
16.60846734046936,1508,0.0,30.0,0.0
16.61824321746826,1840,0.0,30.0,0.0
16.629590272903442,1297,0.0,30.0,0.0
16.639606475830078,1649,0.0,30.0,0.0
16.650639533996582,1161,0.0,30.0,0.0
16.660645484924316,1369,0.0,30.0,0.0
16.670645713806152,1008,0.0,30.0,0.0
16.685328006744385,1385,0.0,30.0,0.0
16.69533920288086,1209,0.0,30.0,0.0
16.70534038543701,1304,0.0,30.0,0.0
16.71534037590027,1173,0.0,30.0,0.0
16.725555419921875,1103,0.0,30.0,0.0
16.726552963256836,1092,0.0,30.0,0.0
16.736572742462158,874,0.0,30.0,0.0
16.746599674224854,943,0.0,30.0,0.0
16.756571769714355,1514,0.0,30.0,0.0
16.766571760177612,823,0.0,30.0,0.0
16.776572942733765,1680,0.0,30.0,0.0
16.795356035232544,689,0.0,30.0,0.0
16.80193543434143,1260,0.0,30.0,0.0
16.810361623764038,1935,0.0,30.0,0.0
16.8252112865448,1136,0.0,30.0,0.0
16.835001707077026,1231,0.0,30.0,0.0
16.83600115776062,976,0.0,30.0,0.0
16.84791898727417,963,0.0,30.0,0.0
16.857938766479492,731,0.0,30.0,0.0
16.8753023147583,1034,0.0,30.0,0.0
16.885338068008423,1872,0.0,30.0,0.0
16.895314693450928,1040,0.0,30.0,0.0
16.905314683914185,1223,0.0,30.0,0.0
16.915437698364258,1155,0.0,30.0,0.0
16.916435480117798,1280,0.0,30.0,0.0
16.935330152511597,1063,0.0,30.0,0.0
16.937329053878784,1243,0.0,30.0,0.0
16.947338104248047,1110,0.0,30.0,0.0
16.95733904838562,1308,0.0,30.0,0.0
16.96733784675598,1285,0.0,30.0,0.0
16.97733783721924,1829,0.0,30.0,0.0
16.987337827682495,1165,0.0,30.0,0.0
16.997339010238647,1904,0.0,30.0,0.0
17.01465106010437,1172,0.0,30.0,0.0
17.01903510093689,1726,0.0,30.0,0.0
17.03533625602722,1104,0.0,30.0,0.0
17.043347358703613,1927,0.0,30.0,0.0
17.050491094589233,1116,0.0,30.0,0.0
17.060499906539917,1629,0.0,30.0,0.0
17.075327396392822,1149,0.0,30.0,0.0
17.085339546203613,1787,0.0,30.0,0.0
17.095340490341187,1159,0.0,30.0,0.0
17.105339288711548,1843,0.0,30.0,0.0
17.115405082702637,1245,0.0,30.0,0.0
17.116402864456177,1733,0.0,30.0,0.0
17.12641477584839,1201,0.0,30.0,0.0
17.136683225631714,1838,0.0,30.0,0.0
17.147650718688965,1317,0.0,30.0,0.0
17.1576509475708,1954,0.0,30.0,0.0
17.167651176452637,1178,0.0,30.0,0.0
17.177650928497314,1959,0.0,30.0,0.0
17.187657594680786,1523,0.0,30.0,0.0
17.197651386260986,1730,0.0,30.0,0.0
17.20765209197998,1627,0.0,30.0,0.0
17.22554302215576,1918,0.0,30.0,0.0
17.235087156295776,1251,0.0,30.0,0.0
17.243131399154663,1936,0.0,30.0,0.0
17.24940276145935,914,0.0,30.0,0.0
17.258378267288208,1926,0.0,30.0,0.0
17.268102169036865,609,0.0,30.0,0.0
17.278119325637817,1519,0.0,30.0,0.0
17.2881178855896,346,0.0,30.0,0.0
17.300252437591553,1169,0.0,30.0,0.0
17.310259103775024,410,0.0,30.0,0.0
17.321489810943604,1599,0.0,30.0,0.0
17.335328340530396,2128,0.0,30.0,0.0
17.3453369140625,1616,0.0,30.0,0.0
17.355347871780396,1921,0.0,30.0,0.0
17.365341186523438,1470,0.0,30.0,0.0
17.375340938568115,1722,0.0,30.0,0.0
17.385340929031372,1343,0.0,30.0,0.0
17.39532971382141,1488,0.0,30.0,0.0
17.405360460281372,1059,0.0,30.0,0.0
17.415340900421143,1325,0.0,30.0,0.0
17.416664600372314,1737,0.0,30.0,0.0
17.426806449890137,1372,0.0,30.0,0.0
17.445526361465454,1653,0.0,30.0,0.0
17.45206880569458,1281,0.0,30.0,0.0
17.4600887298584,1303,0.0,30.0,0.0
17.46854591369629,1627,0.0,30.0,0.0
17.483680725097656,1174,0.0,30.0,0.0
17.494611978530884,693,0.0,30.0,0.0
17.505327701568604,1184,0.0,30.0,0.0
17.515339136123657,1849,0.0,30.0,0.0
17.525339365005493,1054,0.0,30.0,0.0
17.535592317581177,1891,0.0,30.0,0.0
17.5365891456604,1535,0.0,30.0,0.0
17.546618223190308,1749,0.0,30.0,0.0
17.556596040725708,1883,0.0,30.0,0.0
17.566596031188965,1158,0.0,30.0,0.0
17.57659602165222,1319,0.0,30.0,0.0
17.586596250534058,823,0.0,30.0,0.0
17.596596240997314,918,0.0,30.0,0.0
17.606595993041992,1905,0.0,30.0,0.0
17.616620302200317,1749,0.0,30.0,0.0
17.62659740447998,1217,0.0,30.0,0.0
17.63697624206543,1570,0.0,30.0,0.0
17.64791226387024,1087,0.0,30.0,0.0
17.664526224136353,783,0.0,30.0,0.0
17.669309377670288,1123,0.0,30.0,0.0
17.6846764087677,1754,0.0,30.0,0.0
17.693684577941895,2038,0.0,30.0,0.0
17.700311183929443,795,0.0,30.0,0.0
17.71032476425171,1255,0.0,30.0,0.0
17.720325231552124,773,0.0,30.0,0.0
17.73032546043396,1392,0.0,30.0,0.0
17.740325689315796,1847,0.0,30.0,0.0
17.750325202941895,1279,0.0,30.0,0.0
17.76032543182373,1721,0.0,30.0,0.0
17.770326375961304,1409,0.0,30.0,0.0
17.78532862663269,1859,0.0,30.0,0.0
17.795351266860962,1858,0.0,30.0,0.0
17.805352210998535,1834,0.0,30.0,0.0
17.815340757369995,1659,0.0,30.0,0.0
17.825340270996094,1739,0.0,30.0,0.0
17.826805591583252,1902,0.0,30.0,0.0
17.836822509765625,1872,0.0,30.0,0.0
17.846821308135986,1887,0.0,30.0,0.0
17.856821298599243,1837,0.0,30.0,0.0
17.875202655792236,1862,0.0,30.0,0.0
17.885009050369263,702,0.0,30.0,0.0
17.893075466156006,1939,0.0,30.0,0.0
17.900269031524658,701,0.0,30.0,0.0
17.908276796340942,1886,0.0,30.0,0.0
17.91709303855896,720,0.0,30.0,0.0
17.927233934402466,1936,0.0,30.0,0.0
17.937236070632935,686,0.0,30.0,0.0
17.95535683631897,1808,0.0,30.0,0.0
17.956861972808838,704,0.0,30.0,0.0
17.96687150001526,1918,0.0,30.0,0.0
17.976871490478516,816,0.0,30.0,0.0
17.986871480941772,1793,0.0,30.0,0.0
17.99687170982361,715,0.0,30.0,0.0
18.007019996643066,1502,0.0,30.0,0.0
18.025331258773804,798,0.0,30.0,0.0
18.035356283187866,1374,0.0,30.0,0.0
18.045339822769165,636,0.0,30.0,0.0
18.05534839630127,1363,0.0,30.0,0.0
18.06533980369568,2069,0.0,30.0,0.0
18.076461791992188,1520,0.0,30.0,0.0
18.085216760635376,1918,0.0,30.0,0.0
18.088438510894775,1367,0.0,30.0,0.0
18.1017427444458,1722,0.0,30.0,0.0
18.10976243019104,1392,0.0,30.0,0.0
18.124975442886353,1610,0.0,30.0,0.0
18.13297438621521,1347,0.0,30.0,0.0
18.14226269721985,1333,0.0,30.0,0.0
18.15532898902893,1408,0.0,30.0,0.0
18.1653413772583,1383,0.0,30.0,0.0
18.17534112930298,1281,0.0,30.0,0.0
18.18534016609192,1209,0.0,30.0,0.0
18.195341110229492,1104,0.0,30.0,0.0
18.20533776283264,962,0.0,30.0,0.0
18.215341329574585,877,0.0,30.0,0.0
18.225341320037842,1779,0.0,30.0,0.0
18.235341548919678,658,0.0,30.0,0.0
18.245341300964355,1570,0.0,30.0,0.0
18.255337715148926,583,0.0,30.0,0.0
18.265337467193604,1088,0.0,30.0,0.0
18.275341510772705,1421,0.0,30.0,0.0
18.285496473312378,912,0.0,30.0,0.0
18.295536041259766,1451,0.0,30.0,0.0
18.30149269104004,923,0.0,30.0,0.0
18.30950093269348,1398,0.0,30.0,0.0
18.325043439865112,1230,0.0,30.0,0.0
18.333616256713867,1481,0.0,30.0,0.0
18.344876050949097,1250,0.0,30.0,0.0
18.345871686935425,1737,0.0,30.0,0.0
18.35698676109314,1309,0.0,30.0,0.0
18.3670597076416,1679,0.0,30.0,0.0
18.378013134002686,1216,0.0,30.0,0.0
18.388012886047363,1728,0.0,30.0,0.0
18.39801335334778,1395,0.0,30.0,0.0
18.408012866973877,1728,0.0,30.0,0.0
18.425334692001343,1250,0.0,30.0,0.0
18.435346841812134,1796,0.0,30.0,0.0
18.445661783218384,1451,0.0,30.0,0.0
18.44665789604187,1840,0.0,30.0,0.0
18.465163707733154,1333,0.0,30.0,0.0
18.465668201446533,1822,0.0,30.0,0.0
18.476598501205444,772,0.0,30.0,0.0
18.486598014831543,1757,0.0,30.0,0.0
18.50534200668335,1423,0.0,30.0,0.0
18.515968799591064,1991,0.0,30.0,0.0
18.525400400161743,843,0.0,30.0,0.0
18.533804655075073,2077,0.0,30.0,0.0
18.542989492416382,1165,0.0,30.0,0.0
18.551194429397583,1955,0.0,30.0,0.0
18.561214208602905,1471,0.0,30.0,0.0
18.57548427581787,1870,0.0,30.0,0.0
18.585522890090942,1205,0.0,30.0,0.0
18.595491409301758,2010,0.0,30.0,0.0
18.60549020767212,1548,0.0,30.0,0.0
18.61549186706543,2352,0.0,30.0,0.0
18.625491619110107,2538,0.0,30.0,0.0
18.635492086410522,2192,0.0,30.0,0.0
18.645490407943726,2031,0.0,30.0,0.0
18.646929025650024,2148,0.0,30.0,0.0
18.65696930885315,1354,0.0,30.0,0.0
18.666970014572144,2192,0.0,30.0,0.0
18.676969528198242,1216,0.0,30.0,0.0
18.695303916931152,2243,0.0,30.0,0.0
18.705336332321167,2199,0.0,30.0,0.0
18.715399265289307,2251,0.0,30.0,0.0
18.725409746170044,2192,0.0,30.0,0.0
18.735300540924072,2176,0.0,30.0,0.0
18.743326663970947,2190,0.0,30.0,0.0
18.74910807609558,1877,0.0,30.0,0.0
18.758082628250122,2040,0.0,30.0,0.0
18.76699924468994,1574,0.0,30.0,0.0
18.785305500030518,1263,0.0,30.0,0.0
18.795317888259888,1346,0.0,30.0,0.0
18.805318355560303,883,0.0,30.0,0.0
18.81533694267273,1157,0.0,30.0,0.0
18.825318098068237,570,0.0,30.0,0.0
18.835337162017822,736,0.0,30.0,0.0
18.84531831741333,336,0.0,30.0,0.0
18.847718238830566,561,0.0,30.0,0.0
18.85785961151123,231,0.0,30.0,0.0
18.867859601974487,487,0.0,30.0,0.0
18.877859354019165,304,0.0,30.0,0.0
18.887859344482422,1798,0.0,30.0,0.0
18.897868871688843,2301,0.0,30.0,0.0
18.907860279083252,376,0.0,30.0,0.0
18.920222282409668,1135,0.0,30.0,0.0
18.933660745620728,336,0.0,30.0,0.0
18.94167470932007,413,0.0,30.0,0.0
18.94906187057495,364,0.0,30.0,0.0
18.958022117614746,2447,0.0,30.0,0.0
18.967902660369873,425,0.0,30.0,0.0
18.985357522964478,2096,0.0,30.0,0.0
18.986351013183594,355,0.0,30.0,0.0
18.99990463256836,2463,0.0,30.0,0.0
19.00993800163269,275,0.0,30.0,0.0
19.01991105079651,2514,0.0,30.0,0.0
19.029911041259766,205,0.0,30.0,0.0
19.03991150856018,2572,0.0,30.0,0.0
19.04991102218628,128,0.0,30.0,0.0
19.06530475616455,2559,0.0,30.0,0.0
19.075313329696655,202,0.0,30.0,0.0
19.08531355857849,2587,0.0,30.0,0.0
19.09531331062317,118,0.0,30.0,0.0
19.10533618927002,2581,0.0,30.0,0.0
19.11531662940979,207,0.0,30.0,0.0
19.125317096710205,2582,0.0,30.0,0.0
19.135425806045532,222,0.0,30.0,0.0
19.144909143447876,2608,0.0,30.0,0.0
19.151413679122925,192,0.0,30.0,0.0
19.16071844100952,2557,0.0,30.0,0.0
19.175033569335938,183,0.0,30.0,0.0
19.18446660041809,2635,0.0,30.0,0.0
19.19563889503479,496,0.0,30.0,0.0
19.19563889503479,2550,0.0,30.0,0.0
19.205652713775635,122,0.0,30.0,0.0
19.215649127960205,2599,0.0,30.0,0.0
19.226917028427124,84,0.0,30.0,0.0
19.23706030845642,2545,0.0,30.0,0.0
19.247057676315308,2101,0.0,30.0,0.0
19.257057666778564,2425,0.0,30.0,0.0
19.26705765724182,1464,0.0,30.0,0.0
19.277057647705078,2484,0.0,30.0,0.0
19.28705883026123,1563,0.0,30.0,0.0
19.297057390213013,2469,0.0,30.0,0.0
19.30705761909485,2217,0.0,30.0,0.0
19.317057609558105,2413,0.0,30.0,0.0
19.32706117630005,2199,0.0,30.0,0.0
19.33705735206604,2297,0.0,30.0,0.0
19.355435609817505,2089,0.0,30.0,0.0
19.36564350128174,2278,0.0,30.0,0.0
19.368056774139404,2110,0.0,30.0,0.0
19.383662700653076,2275,0.0,30.0,0.0
19.39274501800537,1968,0.0,30.0,0.0
19.40105938911438,2245,0.0,30.0,0.0
19.411081314086914,2057,0.0,30.0,0.0
19.42107605934143,2321,0.0,30.0,0.0
19.431077003479004,2115,0.0,30.0,0.0
19.441076040267944,1633,0.0,30.0,0.0
19.451077222824097,859,0.0,30.0,0.0
19.46107578277588,157,0.0,30.0,0.0
19.47110152244568,239,0.0,30.0,0.0
19.48107624053955,0,0.0,30.0,0.0
19.49529504776001,165,0.0,30.0,0.0
19.497934341430664,1808,0.0,30.0,0.0
19.50796365737915,1061,0.0,30.0,0.0
19.517963409423828,2528,0.0,30.0,0.0
19.527963638305664,1594,0.0,30.0,0.0
19.537963390350342,2485,0.0,30.0,0.0
19.549088954925537,2198,0.0,30.0,0.0
19.55909514427185,2357,0.0,30.0,0.0
19.571818590164185,2192,0.0,30.0,0.0
19.584216833114624,2337,0.0,30.0,0.0
19.592231273651123,2192,0.0,30.0,0.0
19.599940538406372,2221,0.0,30.0,0.0
19.607949018478394,2155,0.0,30.0,0.0
19.61874508857727,1168,0.0,30.0,0.0
19.62877106666565,1715,0.0,30.0,0.0
19.6387722492218,302,0.0,30.0,0.0
19.648936986923218,176,0.0,30.0,0.0
19.660221099853516,2622,0.0,30.0,0.0
19.671196699142456,235,0.0,30.0,0.0
19.685328006744385,2544,0.0,30.0,0.0
19.695340156555176,269,0.0,30.0,0.0
19.70534038543701,2352,0.0,30.0,0.0
19.715340614318848,181,0.0,30.0,0.0
19.72534203529358,0,0.0,30.0,0.0
19.735340356826782,368,0.0,30.0,0.0
19.745336771011353,89,0.0,30.0,0.0
19.755340099334717,544,0.0,30.0,0.0
19.765340328216553,115,0.0,30.0,0.0
19.77534031867981,542,0.0,30.0,0.0
19.785521745681763,129,0.0,30.0,0.0
19.795133113861084,475,0.0,30.0,0.0
19.80122947692871,105,0.0,30.0,0.0
19.815736770629883,429,0.0,30.0,0.0
19.817227840423584,0,0.0,30.0,0.0
19.83346199989319,350,0.0,30.0,0.0
19.843469381332397,0,0.0,30.0,0.0
19.854884147644043,318,0.0,30.0,0.0
19.86546230316162,0,0.0,30.0,0.0
19.866459131240845,300,0.0,30.0,0.0
19.87764811515808,0,0.0,30.0,0.0
19.88765573501587,304,0.0,30.0,0.0
19.897653102874756,0,0.0,30.0,0.0
19.907654762268066,256,0.0,30.0,0.0
19.917654991149902,0,0.0,30.0,0.0
19.92765474319458,455,0.0,30.0,0.0
19.93765664100647,0,0.0,30.0,0.0
19.947654724121094,351,0.0,30.0,0.0
19.95765471458435,78,0.0,30.0,0.0
19.96768569946289,298,0.0,30.0,0.0
19.977683305740356,0,0.0,30.0,0.0
19.990968227386475,529,0.0,30.0,0.0
19.999739408493042,0,0.0,30.0,0.0
20.015475034713745,395,0.0,30.0,0.0
20.024022102355957,0,0.0,30.0,0.0
20.032414436340332,336,0.0,30.0,0.0
20.038748741149902,0,0.0,30.0,0.0
20.049750089645386,342,0.0,30.0,0.0
20.065470457077026,2005,0.0,30.0,0.0
20.07548689842224,362,0.0,30.0,0.0
20.085487127304077,64,0.0,30.0,0.0
20.095486640930176,319,0.0,30.0,0.0
20.10548686981201,61,0.0,30.0,0.0
20.11548686027527,292,0.0,30.0,0.0
20.125486850738525,0,0.0,30.0,0.0
20.131264686584473,327,0.0,30.0,0.0
20.141284227371216,0,0.0,30.0,0.0
20.15128469467163,363,0.0,30.0,0.0
20.16128373146057,0,0.0,30.0,0.0
20.171284198760986,390,0.0,30.0,0.0
20.18128514289856,1899,0.0,30.0,0.0
20.19128394126892,1991,0.0,30.0,0.0
20.20390272140503,2522,0.0,30.0,0.0
20.21558690071106,1968,0.0,30.0,0.0
20.218632221221924,2263,0.0,30.0,0.0
20.23215961456299,1714,0.0,30.0,0.0
20.241116523742676,781,0.0,30.0,0.0
20.250872135162354,1018,0.0,30.0,0.0
20.260887622833252,517,0.0,30.0,0.0
20.268280029296875,770,0.0,30.0,0.0
20.285245895385742,304,0.0,30.0,0.0
20.286240577697754,829,0.0,30.0,0.0
20.296247482299805,433,0.0,30.0,0.0
20.30624508857727,790,0.0,30.0,0.0
20.316245079040527,340,0.0,30.0,0.0
20.326245069503784,699,0.0,30.0,0.0
20.33624529838562,302,0.0,30.0,0.0
20.346245050430298,707,0.0,30.0,0.0
20.358484983444214,1706,0.0,30.0,0.0
20.368509769439697,779,0.0,30.0,0.0
20.37850022315979,334,0.0,30.0,0.0
20.388500213623047,720,0.0,30.0,0.0
20.398500442504883,317,0.0,30.0,0.0
20.40850043296814,597,0.0,30.0,0.0
20.42128324508667,250,0.0,30.0,0.0
20.43278670310974,517,0.0,30.0,0.0
20.441617488861084,202,0.0,30.0,0.0
20.452420949935913,431,0.0,30.0,0.0
20.46545958518982,174,0.0,30.0,0.0
20.46795892715454,520,0.0,30.0,0.0
20.477967739105225,179,0.0,30.0,0.0
20.487968921661377,477,0.0,30.0,0.0
20.49962854385376,1642,0.0,30.0,0.0
20.510936975479126,2115,0.0,30.0,0.0
20.521814107894897,1807,0.0,30.0,0.0
20.531814098358154,1888,0.0,30.0,0.0
20.54181432723999,1568,0.0,30.0,0.0
20.555341482162476,1278,0.0,30.0,0.0
20.559391260147095,1158,0.0,30.0,0.0
20.56941056251526,1232,0.0,30.0,0.0
20.579410552978516,230,0.0,30.0,0.0
20.589409112930298,530,0.0,30.0,0.0
20.599409580230713,73,0.0,30.0,0.0
20.612168788909912,447,0.0,30.0,0.0
20.622196674346924,93,0.0,30.0,0.0
20.63493776321411,426,0.0,30.0,0.0
20.645156383514404,38,0.0,30.0,0.0
20.6498122215271,720,0.0,30.0,0.0
20.665414571762085,48,0.0,30.0,0.0
20.6692214012146,697,0.0,30.0,0.0
20.683083295822144,215,0.0,30.0,0.0
20.69531273841858,530,0.0,30.0,0.0
20.70532536506653,160,0.0,30.0,0.0
20.7153217792511,483,0.0,30.0,0.0
20.72532558441162,153,0.0,30.0,0.0
20.735321760177612,474,0.0,30.0,0.0
20.745325803756714,222,0.0,30.0,0.0
20.75532555580139,496,0.0,30.0,0.0
20.76532554626465,0,0.0,30.0,0.0
20.775325298309326,517,0.0,30.0,0.0
20.785321712493896,185,0.0,30.0,0.0
20.79558539390564,635,0.0,30.0,0.0
20.796584844589233,16,0.0,30.0,0.0
20.815311670303345,627,0.0,30.0,0.0
20.825324058532715,32,0.0,30.0,0.0
20.835522413253784,554,0.0,30.0,0.0
20.8451406955719,144,0.0,30.0,0.0
20.850828170776367,499,0.0,30.0,0.0
20.865388870239258,17,0.0,30.0,0.0
20.86872386932373,473,0.0,30.0,0.0
20.882177591323853,62,0.0,30.0,0.0
20.89530062675476,571,0.0,30.0,0.0
20.90531325340271,47,0.0,30.0,0.0
20.915327548980713,569,0.0,30.0,0.0
20.91632604598999,48,0.0,30.0,0.0
20.92633557319641,551,0.0,30.0,0.0
20.936336040496826,54,0.0,30.0,0.0
20.946358680725098,519,0.0,30.0,0.0
20.95633602142334,80,0.0,30.0,0.0
20.966336011886597,526,0.0,30.0,0.0
20.97633695602417,111,0.0,30.0,0.0
20.98633623123169,528,0.0,30.0,0.0
20.996335983276367,79,0.0,30.0,0.0
21.006335973739624,607,0.0,30.0,0.0
21.0163357257843,0,0.0,30.0,0.0
21.026335954666138,493,0.0,30.0,0.0
21.036335945129395,0,0.0,30.0,0.0
21.048881769180298,560,0.0,30.0,0.0
21.06534242630005,118,0.0,30.0,0.0
21.07530117034912,635,0.0,30.0,0.0
21.082984924316406,144,0.0,30.0,0.0
21.091002225875854,622,0.0,30.0,0.0
21.10074806213379,219,0.0,30.0,0.0
21.11547327041626,535,0.0,30.0,0.0
21.116472721099854,471,0.0,30.0,0.0
21.126481294631958,848,0.0,30.0,0.0
21.136481285095215,576,0.0,30.0,0.0
21.14648151397705,1111,0.0,30.0,0.0
21.156486988067627,657,0.0,30.0,0.0
21.16648244857788,1019,0.0,30.0,0.0
21.176481246948242,605,0.0,30.0,0.0
21.187861919403076,994,0.0,30.0,0.0
21.197875261306763,520,0.0,30.0,0.0
21.207874059677124,879,0.0,30.0,0.0
21.217904567718506,357,0.0,30.0,0.0
21.23532772064209,774,0.0,30.0,0.0
21.24534034729004,322,0.0,30.0,0.0
21.255433082580566,723,0.0,30.0,0.0
21.26524519920349,373,0.0,30.0,0.0
21.27195954322815,727,0.0,30.0,0.0
21.28533363342285,364,0.0,30.0,0.0
21.29334306716919,777,0.0,30.0,0.0
21.299809455871582,370,0.0,30.0,0.0
21.31544589996338,1015,0.0,30.0,0.0
21.324472665786743,311,0.0,30.0,0.0
21.334473609924316,871,0.0,30.0,0.0
21.34447407722473,554,0.0,30.0,0.0
21.35447359085083,1013,0.0,30.0,0.0
21.36475157737732,411,0.0,30.0,0.0
21.366745948791504,1054,0.0,30.0,0.0
21.37688970565796,389,0.0,30.0,0.0
21.386870861053467,915,0.0,30.0,0.0
21.398088932037354,367,0.0,30.0,0.0
21.40809416770935,888,0.0,30.0,0.0
21.418094396591187,327,0.0,30.0,0.0
21.428094148635864,854,0.0,30.0,0.0
21.438122034072876,359,0.0,30.0,0.0
21.448104858398438,880,0.0,30.0,0.0
21.458094596862793,291,0.0,30.0,0.0
21.47083616256714,848,0.0,30.0,0.0
21.483297109603882,304,0.0,30.0,0.0
21.491313219070435,784,0.0,30.0,0.0
21.50533390045166,321,0.0,30.0,0.0
21.515270471572876,845,0.0,30.0,0.0
21.51626706123352,288,0.0,30.0,0.0
21.52725577354431,768,0.0,30.0,0.0
21.537256956100464,250,0.0,30.0,0.0
21.549426555633545,816,0.0,30.0,0.0
21.55956721305847,261,0.0,30.0,0.0
21.570552825927734,781,0.0,30.0,0.0
21.585200309753418,260,0.0,30.0,0.0
21.588919162750244,822,0.0,30.0,0.0
21.598926782608032,267,0.0,30.0,0.0
21.615301609039307,816,0.0,30.0,0.0
21.62531018257141,273,0.0,30.0,0.0
21.635313749313354,850,0.0,30.0,0.0
21.64531397819519,256,0.0,30.0,0.0
21.655309915542603,912,0.0,30.0,0.0
21.66530990600586,304,0.0,30.0,0.0
21.67531156539917,896,0.0,30.0,0.0
21.685458421707153,343,0.0,30.0,0.0
21.688552618026733,930,0.0,30.0,0.0
21.704436540603638,823,0.0,30.0,0.0
21.715229034423828,1414,0.0,30.0,0.0
21.719000816345215,860,0.0,30.0,0.0
21.735334396362305,1340,0.0,30.0,0.0
21.743356227874756,1033,0.0,30.0,0.0
21.751362323760986,1441,0.0,30.0,0.0
21.761372089385986,983,0.0,30.0,0.0
21.775327682495117,1586,0.0,30.0,0.0
21.78533959388733,1040,0.0,30.0,0.0
21.795337438583374,1391,0.0,30.0,0.0
21.796678066253662,983,0.0,30.0,0.0
21.806684255599976,1168,0.0,30.0,0.0
21.816685676574707,911,0.0,30.0,0.0
21.82668399810791,1114,0.0,30.0,0.0
21.836684465408325,803,0.0,30.0,0.0
21.846684217453003,1019,0.0,30.0,0.0
21.85668444633484,809,0.0,30.0,0.0
21.868778705596924,1071,0.0,30.0,0.0
21.878795862197876,755,0.0,30.0,0.0
21.888796091079712,878,0.0,30.0,0.0
21.902390003204346,726,0.0,30.0,0.0
21.915131092071533,993,0.0,30.0,0.0
21.918161869049072,722,0.0,30.0,0.0
21.931813716888428,1072,0.0,30.0,0.0
21.94080400466919,752,0.0,30.0,0.0
21.95055890083313,1989,0.0,30.0,0.0
21.965327501296997,1071,0.0,30.0,0.0
21.966325759887695,2186,0.0,30.0,0.0
21.976335048675537,1313,0.0,30.0,0.0
21.986335039138794,1856,0.0,30.0,0.0
21.996335983276367,1077,0.0,30.0,0.0
22.006335258483887,2099,0.0,30.0,0.0
22.01633596420288,784,0.0,30.0,0.0
22.0263352394104,532,0.0,30.0,0.0
22.036334991455078,1467,0.0,30.0,0.0
22.04633617401123,1979,0.0,30.0,0.0
22.05633521080017,1009,0.0,30.0,0.0
22.066335201263428,1379,0.0,30.0,0.0
22.076356172561646,919,0.0,30.0,0.0
22.08633518218994,1430,0.0,30.0,0.0
22.10308027267456,443,0.0,30.0,0.0
22.11504626274109,994,0.0,30.0,0.0
22.125112533569336,502,0.0,30.0,0.0
22.135308742523193,1174,0.0,30.0,0.0
22.143317222595215,463,0.0,30.0,0.0
22.14975142478943,1191,0.0,30.0,0.0
22.165581464767456,769,0.0,30.0,0.0
22.166349411010742,1232,0.0,30.0,0.0
22.177249908447266,771,0.0,30.0,0.0
22.18851113319397,1746,0.0,30.0,0.0
22.19852066040039,1424,0.0,30.0,0.0
22.209856748580933,0,0.0,30.0,0.0
22.219876527786255,1521,0.0,30.0,0.0
22.22987723350525,0,0.0,30.0,0.0
22.239876985549927,1577,0.0,30.0,0.0
22.2498779296875,0,0.0,30.0,0.0
22.259876251220703,1288,0.0,30.0,0.0
22.269879817962646,0,0.0,30.0,0.0
22.279874324798584,946,0.0,30.0,0.0
22.29529905319214,0,0.0,30.0,0.0
22.30531120300293,416,0.0,30.0,0.0
22.31531071662903,247,0.0,30.0,0.0
22.32540488243103,605,0.0,30.0,0.0
22.33540654182434,759,0.0,30.0,0.0
22.34210991859436,871,0.0,30.0,0.0
22.350350618362427,691,0.0,30.0,0.0
22.36505627632141,807,0.0,30.0,0.0
22.374383449554443,213,0.0,30.0,0.0
22.383662939071655,876,0.0,30.0,0.0
22.395711183547974,1808,0.0,30.0,0.0
22.40572500228882,1381,0.0,30.0,0.0
22.415724992752075,1451,0.0,30.0,0.0
22.425735235214233,1102,0.0,30.0,0.0
22.435725450515747,1279,0.0,30.0,0.0
22.43701982498169,536,0.0,30.0,0.0
22.447033166885376,1285,0.0,30.0,0.0
22.45703387260437,809,0.0,30.0,0.0
22.46703267097473,1215,0.0,30.0,0.0
22.477033853530884,1600,0.0,30.0,0.0
22.487032651901245,1297,0.0,30.0,0.0
22.49703359603882,1172,0.0,30.0,0.0
22.50703263282776,1309,0.0,30.0,0.0
22.517032623291016,1170,0.0,30.0,0.0
22.52703285217285,1415,0.0,30.0,0.0
22.53953528404236,1161,0.0,30.0,0.0
22.555583238601685,1521,0.0,30.0,0.0
22.565058946609497,1308,0.0,30.0,0.0
22.56817889213562,1747,0.0,30.0,0.0
22.58270001411438,1253,0.0,30.0,0.0
22.590682983398438,1674,0.0,30.0,0.0
22.60045313835144,1133,0.0,30.0,0.0
22.615451335906982,1589,0.0,30.0,0.0
22.618056058883667,1136,0.0,30.0,0.0
22.62807559967041,1399,0.0,30.0,0.0
22.638076066970825,1216,0.0,30.0,0.0
22.648076057434082,1343,0.0,30.0,0.0
22.65807604789734,1161,0.0,30.0,0.0
22.668076992034912,1357,0.0,30.0,0.0
22.678076028823853,1232,0.0,30.0,0.0
22.688076972961426,1334,0.0,30.0,0.0
22.698075771331787,1210,0.0,30.0,0.0
22.708076000213623,1467,0.0,30.0,0.0
22.718097686767578,1424,0.0,30.0,0.0
22.728075981140137,1333,0.0,30.0,0.0
22.738075971603394,1262,0.0,30.0,0.0
22.75512146949768,1318,0.0,30.0,0.0
22.764934539794922,1514,0.0,30.0,0.0
22.767992973327637,1465,0.0,30.0,0.0
22.782646894454956,1534,0.0,30.0,0.0
22.79065442085266,1157,0.0,30.0,0.0
22.800403118133545,1792,0.0,30.0,0.0
22.81508207321167,1234,0.0,30.0,0.0
22.816080331802368,1977,0.0,30.0,0.0
22.82608962059021,1298,0.0,30.0,0.0
22.836090803146362,2030,0.0,30.0,0.0
22.846089601516724,1196,0.0,30.0,0.0
22.856091499328613,2047,0.0,30.0,0.0
22.866089582443237,1296,0.0,30.0,0.0
22.876089811325073,2113,0.0,30.0,0.0
22.895297050476074,1227,0.0,30.0,0.0
22.905309438705444,2127,0.0,30.0,0.0
22.9153094291687,1426,0.0,30.0,0.0
22.925309896469116,2127,0.0,30.0,0.0
22.935308933258057,1265,0.0,30.0,0.0
22.94530940055847,2119,0.0,30.0,0.0
22.95530939102173,1291,0.0,30.0,0.0
22.96545433998108,2125,0.0,30.0,0.0
22.975430965423584,1318,0.0,30.0,0.0
22.985257625579834,2112,0.0,30.0,0.0
22.993345737457275,1264,0.0,30.0,0.0
23.0053231716156,2197,0.0,30.0,0.0
23.015394687652588,1250,0.0,30.0,0.0
23.016392469406128,2113,0.0,30.0,0.0
23.026407480239868,1297,0.0,30.0,0.0
23.03640866279602,2123,0.0,30.0,0.0
23.049137353897095,1399,0.0,30.0,0.0
23.059144020080566,2063,0.0,30.0,0.0
23.06914448738098,1271,0.0,30.0,0.0
23.079145193099976,2046,0.0,30.0,0.0
23.089144229888916,1341,0.0,30.0,0.0
23.09914469718933,2087,0.0,30.0,0.0
23.113543272018433,1271,0.0,30.0,0.0
23.12503671646118,1996,0.0,30.0,0.0
23.131246089935303,1183,0.0,30.0,0.0
23.14113140106201,4095,0.0,30.0,0.0
23.15245771408081,998,0.0,30.0,0.0
23.162471771240234,4095,0.0,30.0,0.0
23.175050973892212,656,0.0,30.0,0.0
23.182687282562256,2071,0.0,30.0,0.0
23.18833613395691,949,0.0,30.0,0.0
23.200461387634277,1241,0.0,30.0,0.0
23.214873790740967,1158,0.0,30.0,0.0
23.21693515777588,1328,0.0,30.0,0.0
23.2269504070282,1216,0.0,30.0,0.0
23.236950397491455,1381,0.0,30.0,0.0
23.24695062637329,1296,0.0,30.0,0.0
23.25695037841797,1434,0.0,30.0,0.0
23.268290281295776,1313,0.0,30.0,0.0
23.2783100605011,1325,0.0,30.0,0.0
23.288302183151245,1315,0.0,30.0,0.0
23.298301458358765,1412,0.0,30.0,0.0
23.310700178146362,1462,0.0,30.0,0.0
23.325300216674805,1328,0.0,30.0,0.0
23.335312366485596,1274,0.0,30.0,0.0
23.34531259536743,831,0.0,30.0,0.0
23.355309009552002,1277,0.0,30.0,0.0
23.365312337875366,1073,0.0,30.0,0.0
23.37531328201294,1214,0.0,30.0,0.0
23.38544487953186,839,0.0,30.0,0.0
23.395492792129517,1286,0.0,30.0,0.0
23.400665760040283,635,0.0,30.0,0.0
23.4148268699646,1142,0.0,30.0,0.0
23.42483878135681,569,0.0,30.0,0.0
23.433626651763916,1181,0.0,30.0,0.0
23.445300579071045,474,0.0,30.0,0.0
23.455312728881836,1174,0.0,30.0,0.0
23.464943170547485,400,0.0,30.0,0.0
23.464943170547485,1616,0.0,30.0,0.0
23.475745916366577,1293,0.0,30.0,0.0
23.48574686050415,1522,0.0,30.0,0.0
23.49574565887451,350,0.0,30.0,0.0
23.505745887756348,1360,0.0,30.0,0.0
23.525333642959595,400,0.0,30.0,0.0
23.5353422164917,1420,0.0,30.0,0.0
23.54534602165222,517,0.0,30.0,0.0
23.555344820022583,1619,0.0,30.0,0.0
23.56534242630005,531,0.0,30.0,0.0
23.57550811767578,1623,0.0,30.0,0.0
23.57550811767578,610,0.0,30.0,0.0
23.586487293243408,1719,0.0,30.0,0.0
23.605010271072388,788,0.0,30.0,0.0
23.61487865447998,1658,0.0,30.0,0.0
23.624730825424194,810,0.0,30.0,0.0
23.631526708602905,1566,0.0,30.0,0.0
23.64463186264038,816,0.0,30.0,0.0
23.649590492248535,1507,0.0,30.0,0.0
23.66500210762024,1037,0.0,30.0,0.0
23.666018962860107,691,0.0,30.0,0.0
23.676029443740845,830,0.0,30.0,0.0
23.6860294342041,511,0.0,30.0,0.0
23.69602942466736,1269,0.0,30.0,0.0
23.70604968070984,465,0.0,30.0,0.0
23.716029405593872,1362,0.0,30.0,0.0
23.726062297821045,446,0.0,30.0,0.0
23.73603057861328,1307,0.0,30.0,0.0
23.74603033065796,1143,0.0,30.0,0.0
23.75602960586548,1616,0.0,30.0,0.0
23.766029596328735,426,0.0,30.0,0.0
23.776052713394165,1474,0.0,30.0,0.0
23.78602957725525,1759,0.0,30.0,0.0
23.796029329299927,1228,0.0,30.0,0.0
23.814847946166992,1458,0.0,30.0,0.0
23.81812071800232,1011,0.0,30.0,0.0
23.83539628982544,1075,0.0,30.0,0.0
23.843400716781616,931,0.0,30.0,0.0
23.849185943603516,1211,0.0,30.0,0.0
23.864956855773926,977,0.0,30.0,0.0
23.865954875946045,1565,0.0,30.0,0.0
23.87596082687378,771,0.0,30.0,0.0
23.88596224784851,1310,0.0,30.0,0.0
23.895986795425415,848,0.0,30.0,0.0
23.907355785369873,946,0.0,30.0,0.0
23.917370796203613,830,0.0,30.0,0.0
23.927385568618774,978,0.0,30.0,0.0
23.937370538711548,855,0.0,30.0,0.0
23.947389602661133,919,0.0,30.0,0.0
23.95737099647522,837,0.0,30.0,0.0
23.967370986938477,1342,0.0,30.0,0.0
23.98530125617981,852,0.0,30.0,0.0
23.995335340499878,1418,0.0,30.0,0.0
24.005728483200073,683,0.0,30.0,0.0
24.00672698020935,1398,0.0,30.0,0.0
24.025079011917114,1015,0.0,30.0,0.0
24.033771753311157,1258,0.0,30.0,0.0
24.04176688194275,1149,0.0,30.0,0.0
24.04908776283264,1289,0.0,30.0,0.0
24.064972639083862,1200,0.0,30.0,0.0
24.066752672195435,1204,0.0,30.0,0.0
24.076768159866333,1298,0.0,30.0,0.0
24.08676815032959,1179,0.0,30.0,0.0
24.096770524978638,1490,0.0,30.0,0.0
24.106768131256104,1168,0.0,30.0,0.0
24.11676812171936,1413,0.0,30.0,0.0
24.12676978111267,1411,0.0,30.0,0.0
24.13676929473877,1075,0.0,30.0,0.0
24.146769285202026,1184,0.0,30.0,0.0
24.165000438690186,864,0.0,30.0,0.0
24.166001081466675,1162,0.0,30.0,0.0
24.178319931030273,1706,0.0,30.0,0.0
24.188470125198364,1136,0.0,30.0,0.0
24.19945454597473,1899,0.0,30.0,0.0
24.209455728530884,1123,0.0,30.0,0.0
24.219475507736206,2062,0.0,30.0,0.0
24.235429286956787,1111,0.0,30.0,0.0
24.241209030151367,2439,0.0,30.0,0.0
24.249540328979492,1113,0.0,30.0,0.0
24.264668226242065,3103,0.0,30.0,0.0
24.274688005447388,1066,0.0,30.0,0.0
24.283466815948486,0,0.0,30.0,0.0
24.29348635673523,0,0.0,30.0,0.0
24.3034770488739,0,0.0,30.0,0.0
24.314704656600952,0,0.0,30.0,0.0
24.324799060821533,2446,0.0,30.0,0.0
24.332291841506958,43,0.0,30.0,0.0
24.341105937957764,0,0.0,30.0,0.0
24.34776520729065,0,0.0,30.0,0.0
24.364093542099,779,0.0,30.0,0.0
24.371794939041138,96,0.0,30.0,0.0
24.38225245475769,0,0.0,30.0,0.0
24.394793272018433,0,0.0,30.0,0.0
24.40248417854309,193,0.0,30.0,0.0
24.410114765167236,8,0.0,30.0,0.0
24.4254252910614,1394,0.0,30.0,0.0
24.43355965614319,145,0.0,30.0,0.0
24.44438910484314,0,0.0,30.0,0.0
24.454927444458008,0,0.0,30.0,0.0
24.465500354766846,677,0.0,30.0,0.0
24.47362995147705,81,0.0,30.0,0.0
24.483293771743774,0,0.0,30.0,0.0
24.49463653564453,0,0.0,30.0,0.0
24.505334615707397,158,0.0,30.0,0.0
24.514655590057373,490,0.0,30.0,0.0
24.525578498840332,3067,0.0,30.0,0.0
24.53468370437622,656,0.0,30.0,0.0
24.54159140586853,4095,0.0,30.0,0.0
24.555071115493774,533,0.0,30.0,0.0
24.56559157371521,4095,0.0,30.0,0.0
24.57240104675293,511,0.0,30.0,0.0
24.58593487739563,4095,0.0,30.0,0.0
24.595548629760742,704,0.0,30.0,0.0
24.605700254440308,4095,0.0,30.0,0.0
24.61543893814087,850,0.0,30.0,0.0
24.62531852722168,4095,0.0,30.0,0.0
24.63416576385498,1216,0.0,30.0,0.0
24.640435457229614,3241,0.0,30.0,0.0
24.655052423477173,1449,0.0,30.0,0.0
24.66495680809021,2766,0.0,30.0,0.0
24.67516827583313,1535,0.0,30.0,0.0
24.68346905708313,0,0.0,30.0,0.0
24.687929153442383,1603,0.0,30.0,0.0
24.705573320388794,0,0.0,30.0,0.0
24.71542263031006,1084,0.0,30.0,0.0
24.72486114501953,0,0.0,30.0,0.0
24.73557448387146,0,0.0,30.0,0.0
24.742799520492554,0,0.0,30.0,0.0
24.75476598739624,2615,0.0,30.0,0.0
24.76536774635315,0,0.0,30.0,0.0
24.77288055419922,2639,0.0,30.0,0.0
24.785528421401978,0,0.0,30.0,0.0
24.7949378490448,2925,0.0,30.0,0.0
24.802732706069946,0,0.0,30.0,0.0
24.815476179122925,2897,0.0,30.0,0.0
24.825693368911743,0,0.0,30.0,0.0
24.835378170013428,2887,0.0,30.0,0.0
24.84093689918518,0,0.0,30.0,0.0
24.855557918548584,2874,0.0,30.0,0.0
24.8656325340271,0,0.0,30.0,0.0
24.870594024658203,0,0.0,30.0,0.0
24.885552883148193,1438,0.0,30.0,0.0
24.894735097885132,2950,0.0,30.0,0.0
24.90570640563965,1757,0.0,30.0,0.0
24.915578365325928,2864,0.0,30.0,0.0
24.925570011138916,2421,0.0,30.0,0.0
24.93369770050049,2929,0.0,30.0,0.0
24.941701889038086,29,0.0,30.0,0.0
24.955485820770264,2672,0.0,30.0,0.0
24.965481758117676,2,0.0,30.0,0.0
24.97148370742798,2609,0.0,30.0,0.0
24.984973907470703,0,0.0,30.0,0.0
24.99444341659546,2740,0.0,30.0,0.0
25.001744747161865,0,0.0,30.0,0.0
25.01549744606018,2627,0.0,30.0,0.0
25.025243997573853,0,0.0,30.0,0.0
25.033197164535522,2863,0.0,30.0,0.0
25.040528535842896,0,0.0,30.0,0.0
25.055537939071655,2862,0.0,30.0,0.0
25.06521248817444,0,0.0,30.0,0.0
25.071532011032104,2864,0.0,30.0,0.0
25.084561109542847,0,0.0,30.0,0.0
25.0949764251709,2892,0.0,30.0,0.0
25.100990533828735,2539,0.0,30.0,0.0
25.11467432975769,2586,0.0,30.0,0.0
25.122959852218628,1742,0.0,30.0,0.0
25.13232922554016,2690,0.0,30.0,0.0
25.140552759170532,1656,0.0,30.0,0.0
25.15565824508667,2800,0.0,30.0,0.0
25.165106296539307,1712,0.0,30.0,0.0
25.17414617538452,2761,0.0,30.0,0.0
25.1855628490448,1705,0.0,30.0,0.0
25.194438457489014,2811,0.0,30.0,0.0
25.205590963363647,0,0.0,30.0,0.0
25.215505599975586,2948,0.0,30.0,0.0
25.223659992218018,0,0.0,30.0,0.0
25.233373880386353,2557,0.0,30.0,0.0
25.24602723121643,2507,0.0,30.0,0.0
25.254425764083862,1413,0.0,30.0,0.0
25.263145685195923,1737,0.0,30.0,0.0
25.2698495388031,1168,0.0,30.0,0.0
25.28476595878601,1525,0.0,30.0,0.0
25.294840574264526,1148,0.0,30.0,0.0
25.30134415626526,1444,0.0,30.0,0.0
25.31492829322815,1243,0.0,30.0,0.0
25.325111150741577,0,0.0,30.0,0.0
25.33513331413269,1234,0.0,30.0,0.0
25.33942461013794,0,0.0,30.0,0.0
25.350929498672485,939,0.0,30.0,0.0
25.364779472351074,0,0.0,30.0,0.0
25.370644092559814,16,0.0,30.0,0.0
25.385130405426025,0,0.0,30.0,0.0
25.39265727996826,2685,0.0,30.0,0.0
25.401294469833374,0,0.0,30.0,0.0
25.41556191444397,2929,0.0,30.0,0.0
25.424671411514282,0,0.0,30.0,0.0
25.431254386901855,2717,0.0,30.0,0.0
25.44555377960205,2133,0.0,30.0,0.0
25.4549560546875,2906,0.0,30.0,0.0
25.4650137424469,0,0.0,30.0,0.0
25.470364570617676,2576,0.0,30.0,0.0
25.48491358757019,0,0.0,30.0,0.0
25.493842363357544,0,0.0,30.0,0.0
25.50522494316101,0,0.0,30.0,0.0
25.51495623588562,2433,0.0,30.0,0.0
25.52456545829773,0,0.0,30.0,0.0
25.535481452941895,0,0.0,30.0,0.0
25.545446634292603,0,0.0,30.0,0.0
25.554921865463257,0,0.0,30.0,0.0
25.564528465270996,0,0.0,30.0,0.0
25.57597017288208,2868,0.0,30.0,0.0
25.585081338882446,4,0.0,30.0,0.0
25.593137979507446,2845,0.0,30.0,0.0
25.605075359344482,19,0.0,30.0,0.0
25.614622116088867,2880,0.0,30.0,0.0
25.622530937194824,0,0.0,30.0,0.0
25.635295152664185,2899,0.0,30.0,0.0
25.645063400268555,0,0.0,30.0,0.0
25.655479907989502,1253,0.0,30.0,0.0
25.66460347175598,2427,0.0,30.0,0.0
25.675204753875732,492,0.0,30.0,0.0
25.685264110565186,2087,0.0,30.0,0.0
25.692925930023193,587,0.0,30.0,0.0
25.705125093460083,1763,0.0,30.0,0.0
25.71544575691223,1106,0.0,30.0,0.0
25.723962545394897,1959,0.0,30.0,0.0
25.734952688217163,1136,0.0,30.0,0.0
25.745131969451904,2141,0.0,30.0,0.0
25.768993139266968,1196,0.0,30.0,0.0
25.768993139266968,2309,0.0,30.0,0.0
25.77516460418701,1179,0.0,30.0,0.0
25.784120559692383,2149,0.0,30.0,0.0
25.794673681259155,1194,0.0,30.0,0.0
25.80461573600769,2065,0.0,30.0,0.0
25.814826250076294,1111,0.0,30.0,0.0
25.82337713241577,2123,0.0,30.0,0.0
25.835082054138184,604,0.0,30.0,0.0
25.845481634140015,1840,0.0,30.0,0.0
25.85464906692505,672,0.0,30.0,0.0
25.86555814743042,1874,0.0,30.0,0.0
25.87501811981201,586,0.0,30.0,0.0
25.88486671447754,1641,0.0,30.0,0.0
25.891448497772217,794,0.0,30.0,0.0
25.905376434326172,1328,0.0,30.0,0.0
25.914849996566772,672,0.0,30.0,0.0
25.925472497940063,1296,0.0,30.0,0.0
25.934929847717285,577,0.0,30.0,0.0
25.94544005393982,1294,0.0,30.0,0.0
25.955192804336548,875,0.0,30.0,0.0
25.96540641784668,1264,0.0,30.0,0.0
25.97507905960083,837,0.0,30.0,0.0
25.98558735847473,1425,0.0,30.0,0.0
25.991917371749878,819,0.0,30.0,0.0
26.005058765411377,1290,0.0,30.0,0.0
26.015549421310425,795,0.0,30.0,0.0
26.02200746536255,1427,0.0,30.0,0.0
26.034746170043945,841,0.0,30.0,0.0
26.04495072364807,1451,0.0,30.0,0.0
26.055189847946167,674,0.0,30.0,0.0
26.06574034690857,1283,0.0,30.0,0.0
26.074824333190918,930,0.0,30.0,0.0
26.085140705108643,1317,0.0,30.0,0.0
26.091609716415405,714,0.0,30.0,0.0
26.105880737304688,1291,0.0,30.0,0.0
26.115512132644653,1306,0.0,30.0,0.0
26.12200403213501,1290,0.0,30.0,0.0
26.135241270065308,1127,0.0,30.0,0.0
26.14481282234192,1251,0.0,30.0,0.0
26.15389132499695,957,0.0,30.0,0.0
26.164329528808594,1231,0.0,30.0,0.0
26.17460536956787,726,0.0,30.0,0.0
26.185203313827515,1069,0.0,30.0,0.0
26.19232702255249,469,0.0,30.0,0.0
26.205602407455444,947,0.0,30.0,0.0
26.214589834213257,241,0.0,30.0,0.0
26.225427865982056,1607,0.0,30.0,0.0
26.235174894332886,2353,0.0,30.0,0.0
26.245554447174072,1168,0.0,30.0,0.0
26.253185749053955,717,0.0,30.0,0.0
26.2654025554657,1290,0.0,30.0,0.0
26.27525520324707,1186,0.0,30.0,0.0
26.283928394317627,1283,0.0,30.0,0.0
26.290742874145508,1127,0.0,30.0,0.0
26.30527925491333,1267,0.0,30.0,0.0
26.315299034118652,1091,0.0,30.0,0.0
26.323734283447266,1265,0.0,30.0,0.0
26.335754871368408,825,0.0,30.0,0.0
26.345081329345703,1232,0.0,30.0,0.0
26.355361461639404,775,0.0,30.0,0.0
26.365421772003174,1242,0.0,30.0,0.0
26.375541925430298,1287,0.0,30.0,0.0
26.382662773132324,1456,0.0,30.0,0.0
26.38991093635559,994,0.0,30.0,0.0
26.405362844467163,1791,0.0,30.0,0.0
26.41508913040161,939,0.0,30.0,0.0
26.423375606536865,1697,0.0,30.0,0.0
26.4275324344635,1005,0.0,30.0,0.0
26.44361901283264,1406,0.0,30.0,0.0
26.45263910293579,1008,0.0,30.0,0.0
26.465961694717407,1244,0.0,30.0,0.0
26.473369598388672,998,0.0,30.0,0.0
26.483043432235718,1417,0.0,30.0,0.0
26.488744258880615,965,0.0,30.0,0.0
26.505086660385132,1279,0.0,30.0,0.0
26.51372241973877,1036,0.0,30.0,0.0
26.520490646362305,1296,0.0,30.0,0.0
26.52822470664978,996,0.0,30.0,0.0
26.5433988571167,1291,0.0,30.0,0.0
26.554821491241455,1051,0.0,30.0,0.0
26.565732717514038,1255,0.0,30.0,0.0
26.575410842895508,1255,0.0,30.0,0.0
26.583681344985962,1412,0.0,30.0,0.0
26.588428020477295,1049,0.0,30.0,0.0
26.60489511489868,1373,0.0,30.0,0.0
26.615264177322388,1042,0.0,30.0,0.0
26.620109796524048,1264,0.0,30.0,0.0
26.635557174682617,1035,0.0,30.0,0.0
26.644601345062256,1550,0.0,30.0,0.0
26.649917364120483,1237,0.0,30.0,0.0
26.665282011032104,1551,0.0,30.0,0.0
26.668434619903564,993,0.0,30.0,0.0
26.682657480239868,1452,0.0,30.0,0.0
26.692684412002563,1005,0.0,30.0,0.0
26.704598426818848,1527,0.0,30.0,0.0
26.712271451950073,994,0.0,30.0,0.0
26.722302675247192,1377,0.0,30.0,0.0
26.735183715820312,865,0.0,30.0,0.0
26.743046045303345,1210,0.0,30.0,0.0
26.753058433532715,900,0.0,30.0,0.0
26.765462398529053,1172,0.0,30.0,0.0
26.775399923324585,2453,0.0,30.0,0.0
26.78468632698059,2320,0.0,30.0,0.0
26.79017162322998,1235,0.0,30.0,0.0
26.804616928100586,2336,0.0,30.0,0.0
26.815151691436768,1280,0.0,30.0,0.0
26.820209503173828,2343,0.0,30.0,0.0
26.835497856140137,265,0.0,30.0,0.0
26.844308376312256,59,0.0,30.0,0.0
26.85108518600464,132,0.0,30.0,0.0
26.86547327041626,1462,0.0,30.0,0.0
26.87399697303772,2878,0.0,30.0,0.0
26.880674362182617,1759,0.0,30.0,0.0
26.888333082199097,2781,0.0,30.0,0.0
26.90467882156372,2110,0.0,30.0,0.0
26.90809988975525,2559,0.0,30.0,0.0
26.921019315719604,2306,0.0,30.0,0.0
26.93540596961975,2368,0.0,30.0,0.0
26.94519352912903,2300,0.0,30.0,0.0
26.94988489151001,2194,0.0,30.0,0.0
26.96516442298889,2316,0.0,30.0,0.0
26.975619554519653,1293,0.0,30.0,0.0
26.985410928726196,2318,0.0,30.0,0.0
26.989128351211548,1099,0.0,30.0,0.0
27.005486726760864,1591,0.0,30.0,0.0
27.015204191207886,417,0.0,30.0,0.0
27.019864320755005,1616,0.0,30.0,0.0
27.035184383392334,1089,0.0,30.0,0.0
27.04542303085327,1616,0.0,30.0,0.0
27.05059266090393,2506,0.0,30.0,0.0
27.06479239463806,1661,0.0,30.0,0.0
27.074567317962646,2374,0.0,30.0,0.0
27.083513021469116,1670,0.0,30.0,0.0
27.089900493621826,2338,0.0,30.0,0.0
27.10542631149292,1811,0.0,30.0,0.0
27.111878633499146,2384,0.0,30.0,0.0
27.12531352043152,2223,0.0,30.0,0.0
27.13498091697693,1374,0.0,30.0,0.0
27.142597436904907,2130,0.0,30.0,0.0
27.151389360427856,1900,0.0,30.0,0.0
27.164838790893555,2250,0.0,30.0,0.0
27.173278093338013,2432,0.0,30.0,0.0
27.18115782737732,2323,0.0,30.0,0.0
27.195354461669922,2325,0.0,30.0,0.0
27.204357385635376,2259,0.0,30.0,0.0
27.21536946296692,2416,0.0,30.0,0.0
27.221871852874756,2247,0.0,30.0,0.0
27.234845876693726,2439,0.0,30.0,0.0
27.24538803100586,2178,0.0,30.0,0.0
27.250871896743774,2624,0.0,30.0,0.0
27.265575885772705,2169,0.0,30.0,0.0
27.274114847183228,2657,0.0,30.0,0.0
27.28195595741272,2293,0.0,30.0,0.0
27.290653705596924,2656,0.0,30.0,0.0
27.30546474456787,1927,0.0,30.0,0.0
27.31257200241089,2736,0.0,30.0,0.0
27.320175886154175,1722,0.0,30.0,0.0
27.33462142944336,2708,0.0,30.0,0.0
27.343223094940186,1485,0.0,30.0,0.0
27.349918603897095,2814,0.0,30.0,0.0
27.365428924560547,114,0.0,30.0,0.0
27.37390685081482,2160,0.0,30.0,0.0
27.381942749023438,98,0.0,30.0,0.0
27.392010927200317,0,0.0,30.0,0.0
27.40543508529663,136,0.0,30.0,0.0
27.415298223495483,0,0.0,30.0,0.0
27.424715518951416,143,0.0,30.0,0.0
27.43499255180359,0,0.0,30.0,0.0
27.442021369934082,129,0.0,30.0,0.0
27.451016187667847,0,0.0,30.0,0.0
27.464768171310425,116,0.0,30.0,0.0
27.472798347473145,0,0.0,30.0,0.0
27.485236644744873,122,0.0,30.0,0.0
27.495160818099976,2330,0.0,30.0,0.0
27.505265474319458,1658,0.0,30.0,0.0
27.511794805526733,2710,0.0,30.0,0.0
27.525524854660034,1647,0.0,30.0,0.0
27.534297227859497,1171,0.0,30.0,0.0
27.545297622680664,2263,0.0,30.0,0.0
27.554567098617554,1743,0.0,30.0,0.0
27.564835786819458,2293,0.0,30.0,0.0
27.57523274421692,2368,0.0,30.0,0.0
27.5831618309021,2256,0.0,30.0,0.0
27.59542226791382,2366,0.0,30.0,0.0
27.605366945266724,2091,0.0,30.0,0.0
27.614880084991455,1008,0.0,30.0,0.0
27.626243591308594,1922,0.0,30.0,0.0
27.635493516921997,478,0.0,30.0,0.0
27.64532208442688,1853,0.0,30.0,0.0
27.654438495635986,256,0.0,30.0,0.0
27.665546655654907,1840,0.0,30.0,0.0
27.673232316970825,2768,0.0,30.0,0.0
27.682705879211426,2043,0.0,30.0,0.0
27.695173501968384,2831,0.0,30.0,0.0
27.70395851135254,1680,0.0,30.0,0.0
27.714720726013184,2723,0.0,30.0,0.0
27.725056886672974,2030,0.0,30.0,0.0
27.733771324157715,2750,0.0,30.0,0.0
27.742526292800903,2368,0.0,30.0,0.0
27.75590944290161,2637,0.0,30.0,0.0
27.765488147735596,2355,0.0,30.0,0.0
27.773079872131348,2626,0.0,30.0,0.0
27.78537917137146,2366,0.0,30.0,0.0
27.79567790031433,2811,0.0,30.0,0.0
27.80338168144226,2374,0.0,30.0,0.0
27.81516432762146,2686,0.0,30.0,0.0
27.8257839679718,1743,0.0,30.0,0.0
27.835289478302002,2687,0.0,30.0,0.0
27.84481167793274,1415,0.0,30.0,0.0
27.847759246826172,2577,0.0,30.0,0.0
27.865474939346313,165,0.0,30.0,0.0
27.874374866485596,2672,0.0,30.0,0.0
27.88585114479065,2145,0.0,30.0,0.0
27.895976066589355,2645,0.0,30.0,0.0
27.90560555458069,2335,0.0,30.0,0.0
27.913607358932495,1971,0.0,30.0,0.0
27.92168092727661,243,0.0,30.0,0.0
27.932673931121826,0,0.0,30.0,0.0
27.942683458328247,189,0.0,30.0,0.0
27.95268225669861,0,0.0,30.0,0.0
27.96273684501648,121,0.0,30.0,0.0
27.975345849990845,0,0.0,30.0,0.0
27.98540735244751,30,0.0,30.0,0.0
27.986429929733276,0,0.0,30.0,0.0
27.996436595916748,60,0.0,30.0,0.0
28.009443283081055,0,0.0,30.0,0.0
28.019461393356323,53,0.0,30.0,0.0
28.032483339309692,0,0.0,30.0,0.0
28.045339822769165,0,0.0,30.0,0.0
28.05489420890808,0,0.0,30.0,0.0
28.0650577545166,0,0.0,30.0,0.0
28.073090076446533,0,0.0,30.0,0.0
28.08450198173523,0,0.0,30.0,0.0
28.095057487487793,0,0.0,30.0,0.0
28.10312271118164,28,0.0,30.0,0.0
28.110353469848633,0,0.0,30.0,0.0
28.125752687454224,0,0.0,30.0,0.0
28.133697748184204,0,0.0,30.0,0.0
28.141225576400757,0,0.0,30.0,0.0
28.14877963066101,0,0.0,30.0,0.0
28.16413450241089,91,0.0,30.0,0.0
28.171822547912598,0,0.0,30.0,0.0
28.180487632751465,0,0.0,30.0,0.0
28.194840669631958,0,0.0,30.0,0.0
28.20541262626648,0,0.0,30.0,0.0
28.21548867225647,0,0.0,30.0,0.0
28.225197553634644,0,0.0,30.0,0.0
28.234748601913452,0,0.0,30.0,0.0
28.241097450256348,0,0.0,30.0,0.0
28.255247831344604,0,0.0,30.0,0.0
28.264461517333984,0,0.0,30.0,0.0
28.274461269378662,0,0.0,30.0,0.0
28.285168647766113,89,0.0,30.0,0.0
28.294772148132324,0,0.0,30.0,0.0
28.304656982421875,167,0.0,30.0,0.0
28.314716339111328,0,0.0,30.0,0.0
28.324880599975586,144,0.0,30.0,0.0
28.335206985473633,0,0.0,30.0,0.0
28.34561061859131,191,0.0,30.0,0.0
28.35591983795166,0,0.0,30.0,0.0
28.365490198135376,178,0.0,30.0,0.0
28.37518286705017,2867,0.0,30.0,0.0
28.384962797164917,165,0.0,30.0,0.0
28.395145893096924,0,0.0,30.0,0.0
28.401159048080444,178,0.0,30.0,0.0
28.414856910705566,2189,0.0,30.0,0.0
28.425212860107422,154,0.0,30.0,0.0
28.435004949569702,2365,0.0,30.0,0.0
28.441712141036987,144,0.0,30.0,0.0
28.455512762069702,0,0.0,30.0,0.0
28.46547794342041,108,0.0,30.0,0.0
28.469930171966553,0,0.0,30.0,0.0
28.481526851654053,112,0.0,30.0,0.0
28.494598865509033,0,0.0,30.0,0.0
28.499603033065796,129,0.0,30.0,0.0
28.515347957611084,0,0.0,30.0,0.0
28.518339157104492,188,0.0,30.0,0.0
28.53162431716919,0,0.0,30.0,0.0
28.541635751724243,101,0.0,30.0,0.0
28.553414583206177,0,0.0,30.0,0.0
28.564382314682007,2381,0.0,30.0,0.0
28.574827194213867,0,0.0,30.0,0.0
28.57768726348877,86,0.0,30.0,0.0
28.58770203590393,0,0.0,30.0,0.0
28.597702264785767,1366,0.0,30.0,0.0
28.607906818389893,0,0.0,30.0,0.0
28.62408709526062,195,0.0,30.0,0.0
28.63234806060791,0,0.0,30.0,0.0
28.64042592048645,0,0.0,30.0,0.0
28.654833793640137,0,0.0,30.0,0.0
28.66143250465393,221,0.0,30.0,0.0
28.67290687561035,2206,0.0,30.0,0.0
28.68552279472351,700,0.0,30.0,0.0
28.693145751953125,2618,0.0,30.0,0.0
28.700905323028564,1405,0.0,30.0,0.0
28.715179920196533,2490,0.0,30.0,0.0
28.724843978881836,1363,0.0,30.0,0.0
28.73551297187805,2767,0.0,30.0,0.0
28.74023985862732,136,0.0,30.0,0.0
28.754944562911987,2685,0.0,30.0,0.0
28.76471471786499,180,0.0,30.0,0.0
28.77115774154663,0,0.0,30.0,0.0
28.785576581954956,197,0.0,30.0,0.0
28.79539918899536,0,0.0,30.0,0.0
28.80153250694275,123,0.0,30.0,0.0
28.81470513343811,0,0.0,30.0,0.0
28.8248393535614,143,0.0,30.0,0.0
28.832908391952515,0,0.0,30.0,0.0
28.84599471092224,106,0.0,30.0,0.0
28.855588674545288,0,0.0,30.0,0.0
28.864627838134766,208,0.0,30.0,0.0
28.871175289154053,0,0.0,30.0,0.0
28.885030031204224,155,0.0,30.0,0.0
28.895482540130615,2579,0.0,30.0,0.0
28.901015996932983,67,0.0,30.0,0.0
28.915197372436523,2672,0.0,30.0,0.0
28.924396753311157,180,0.0,30.0,0.0
28.93573522567749,2623,0.0,30.0,0.0
28.945708751678467,189,0.0,30.0,0.0
28.955241918563843,2749,0.0,30.0,0.0
28.964726448059082,201,0.0,30.0,0.0
28.974841356277466,2797,0.0,30.0,0.0
28.985790014266968,206,0.0,30.0,0.0
28.995553016662598,2774,0.0,30.0,0.0
29.001184225082397,202,0.0,30.0,0.0
29.01470708847046,2768,0.0,30.0,0.0
29.02421259880066,176,0.0,30.0,0.0
29.03435254096985,2802,0.0,30.0,0.0
29.045607805252075,174,0.0,30.0,0.0
29.053903579711914,2688,0.0,30.0,0.0
29.065675497055054,163,0.0,30.0,0.0
29.070356130599976,1115,0.0,30.0,0.0
29.08483624458313,123,0.0,30.0,0.0
29.095749855041504,246,0.0,30.0,0.0
29.098966121673584,121,0.0,30.0,0.0
29.11490297317505,0,0.0,30.0,0.0
29.125558853149414,123,0.0,30.0,0.0
29.133842706680298,0,0.0,30.0,0.0
29.139420986175537,112,0.0,30.0,0.0
29.155253887176514,0,0.0,30.0,0.0
29.165582180023193,117,0.0,30.0,0.0
29.16935706138611,0,0.0,30.0,0.0
29.185399293899536,123,0.0,30.0,0.0
29.193365573883057,0,0.0,30.0,0.0
29.20556092262268,144,0.0,30.0,0.0
29.215105295181274,0,0.0,30.0,0.0
29.22526741027832,131,0.0,30.0,0.0
29.233016967773438,0,0.0,30.0,0.0
29.244625568389893,134,0.0,30.0,0.0
29.2536141872406,0,0.0,30.0,0.0
29.26477837562561,152,0.0,30.0,0.0
29.269867420196533,0,0.0,30.0,0.0
29.285476684570312,225,0.0,30.0,0.0
29.291983127593994,0,0.0,30.0,0.0
29.305257081985474,211,0.0,30.0,0.0
29.313973426818848,0,0.0,30.0,0.0
29.324711322784424,165,0.0,30.0,0.0
29.33511972427368,0,0.0,30.0,0.0
29.337956190109253,134,0.0,30.0,0.0
29.34861969947815,0,0.0,30.0,0.0
29.364743947982788,122,0.0,30.0,0.0
29.368656635284424,0,0.0,30.0,0.0
29.38502264022827,116,0.0,30.0,0.0
29.391417264938354,0,0.0,30.0,0.0
29.404799222946167,25,0.0,30.0,0.0
29.414074420928955,0,0.0,30.0,0.0
29.423942804336548,0,0.0,30.0,0.0
29.435186624526978,0,0.0,30.0,0.0
29.44444251060486,48,0.0,30.0,0.0
29.453510999679565,0,0.0,30.0,0.0
29.464913368225098,61,0.0,30.0,0.0
29.475494146347046,0,0.0,30.0,0.0
29.485363483428955,157,0.0,30.0,0.0
29.49246072769165,0,0.0,30.0,0.0
29.504936695098877,144,0.0,30.0,0.0
29.51386284828186,0,0.0,30.0,0.0
29.524436950683594,164,0.0,30.0,0.0
29.53403639793396,0,0.0,30.0,0.0
29.54517364501953,154,0.0,30.0,0.0
29.551900148391724,0,0.0,30.0,0.0
29.56531548500061,157,0.0,30.0,0.0
29.569226264953613,0,0.0,30.0,0.0
29.584697008132935,140,0.0,30.0,0.0
29.592271327972412,0,0.0,30.0,0.0
29.59902000427246,146,0.0,30.0,0.0
29.61396336555481,0,0.0,30.0,0.0
29.625691652297974,144,0.0,30.0,0.0
29.632474422454834,0,0.0,30.0,0.0
29.645187377929688,111,0.0,30.0,0.0
29.64799451828003,0,0.0,30.0,0.0
29.664671659469604,21,0.0,30.0,0.0
29.66826033592224,0,0.0,30.0,0.0
29.68549370765686,15,0.0,30.0,0.0
29.69378638267517,0,0.0,30.0,0.0
29.699247360229492,15,0.0,30.0,0.0
29.713828325271606,0,0.0,30.0,0.0
29.725287914276123,30,0.0,30.0,0.0
29.732367992401123,0,0.0,30.0,0.0
29.74526810646057,54,0.0,30.0,0.0
29.74695348739624,0,0.0,30.0,0.0
29.765236139297485,39,0.0,30.0,0.0
29.768877029418945,0,0.0,30.0,0.0
29.78443694114685,48,0.0,30.0,0.0
29.794394969940186,0,0.0,30.0,0.0
29.800498485565186,113,0.0,30.0,0.0
29.813761234283447,0,0.0,30.0,0.0
29.825371026992798,141,0.0,30.0,0.0
29.831509113311768,0,0.0,30.0,0.0
29.845038175582886,182,0.0,30.0,0.0
29.855700731277466,2431,0.0,30.0,0.0
29.864707469940186,145,0.0,30.0,0.0
29.8754141330719,2343,0.0,30.0,0.0
29.884481191635132,151,0.0,30.0,0.0
29.890861749649048,2176,0.0,30.0,0.0
29.905091762542725,160,0.0,30.0,0.0
29.913551807403564,0,0.0,30.0,0.0
29.921269416809082,190,0.0,30.0,0.0
29.933829069137573,0,0.0,30.0,0.0
29.944695472717285,194,0.0,30.0,0.0
29.9541757106781,0,0.0,30.0,0.0
29.965487480163574,186,0.0,30.0,0.0
29.974031925201416,0,0.0,30.0,0.0
29.984978199005127,187,0.0,30.0,0.0
29.99137282371521,0,0.0,30.0,0.0
