Timestamp,EMG Value,massage_speed,massage_duration,relaxment_level
0.0009963512420654297,0,0.0,0.0,0.0
0.013803243637084961,1578,0.0,0.0,0.0
0.023853302001953125,0,0.0,0.0,0.0
0.03772449493408203,1415,0.0,0.0,0.0
0.04780745506286621,0,0.0,0.0,0.0
0.05782747268676758,1153,0.0,0.0,0.0
0.06781482696533203,1144,0.0,0.0,0.0
0.06781482696533203,991,0.0,0.0,0.0
0.0878145694732666,2898,0.0,0.0,0.0
0.09781408309936523,1059,0.0,0.0,0.0
0.10781359672546387,2022,0.0,0.0,0.0
0.11781477928161621,1402,0.0,0.0,0.0
0.11781477928161621,2096,0.0,0.0,0.0
0.12781429290771484,1821,0.0,0.0,0.0
0.1395261287689209,2969,0.0,0.0,0.0
0.15743637084960938,1808,0.0,0.0,0.0
0.16745424270629883,2877,0.0,0.0,0.0
0.17745518684387207,1627,0.0,0.0,0.0
0.18745183944702148,3053,0.0,0.0,0.0
0.18984389305114746,1648,0.0,0.0,0.0
0.19985103607177734,2871,0.0,0.0,0.0
0.21755027770996094,1579,0.0,0.0,0.0
0.22756624221801758,3011,0.0,0.0,0.0
0.23755645751953125,1505,0.0,0.0,0.0
0.2420635223388672,2976,0.0,0.0,0.0
0.25569915771484375,1395,0.0,0.0,0.0
0.26570773124694824,2948,0.0,0.0,0.0
0.275707483291626,1236,0.0,0.0,0.0
0.2857065200805664,2832,0.0,0.0,0.0
0.29570817947387695,1315,0.0,0.0,0.0
0.3059077262878418,569,0.0,0.0,0.0
0.3174171447753906,1648,0.0,0.0,0.0
0.3274388313293457,4095,0.0,0.0,0.0
0.3370804786682129,1915,0.0,0.0,0.0
0.3474125862121582,4095,0.0,0.0,0.0
0.3574190139770508,2126,0.0,0.0,0.0
0.3674166202545166,4095,0.0,0.0,0.0
0.3774394989013672,3163,0.0,0.0,0.0
0.3874194622039795,4095,0.0,0.0,0.0
0.3897278308868408,3665,0.0,0.0,0.0
0.3997366428375244,4095,0.0,0.0,0.0
0.40973734855651855,4095,0.0,0.0,0.0
0.4275946617126465,4095,0.0,0.0,0.0
0.4359464645385742,4095,0.0,0.0,0.0
0.4415919780731201,4095,0.0,0.0,0.0
0.45537686347961426,4095,0.0,0.0,0.0
0.46724581718444824,4095,0.0,0.0,0.0
0.472292423248291,4095,0.0,0.0,0.0
0.4823300838470459,4095,0.0,0.0,0.0
0.4923090934753418,4095,0.0,0.0,0.0
0.5023081302642822,4095,0.0,0.0,0.0
0.5126326084136963,4095,0.0,0.0,0.0
0.523643970489502,4095,0.0,0.0,0.0
0.5336177349090576,4095,0.0,0.0,0.0
0.5436182022094727,4095,0.0,0.0,0.0
0.5563876628875732,4095,0.0,0.0,0.0
0.566394567489624,4095,0.0,0.0,0.0
0.57486891746521,4095,0.0,0.0,0.0
0.5874674320220947,4095,0.0,0.0,0.0
0.5897336006164551,4095,0.0,0.0,0.0
0.6074302196502686,4095,0.0,0.0,0.0
0.6171717643737793,4095,0.0,0.0,0.0
0.627377986907959,4095,0.0,0.0,0.0
0.6366288661956787,4095,0.0,0.0,0.0
0.6474957466125488,4095,0.0,0.0,0.0
0.6568217277526855,4095,0.0,0.0,0.0
0.6653828620910645,4095,0.0,0.0,0.0
0.6730365753173828,4095,0.0,0.0,0.0
0.6872491836547852,4095,0.0,0.0,0.0
0.697429895401001,4095,0.0,0.0,0.0
0.707404613494873,4095,0.0,0.0,0.0
0.7168991565704346,4095,0.0,0.0,0.0
0.7259364128112793,4095,0.0,0.0,0.0
0.7344269752502441,4095,0.0,0.0,0.0
0.7478053569793701,4095,0.0,0.0,0.0
0.7574462890625,4095,0.0,0.0,0.0
0.7649874687194824,4095,0.0,0.0,0.0
0.7722170352935791,4095,0.0,0.0,0.0
0.7869870662689209,4095,0.0,0.0,0.0
0.7976512908935547,4095,0.0,0.0,0.0
0.8055908679962158,4095,0.0,0.0,0.0
0.813758373260498,4095,0.0,0.0,0.0
0.8251855373382568,4095,0.0,0.0,0.0
0.8363046646118164,4095,0.0,0.0,0.0
0.8403067588806152,4095,0.0,0.0,0.0
0.8573944568634033,4095,0.0,0.0,0.0
0.86690354347229,4095,0.0,0.0,0.0
0.87380051612854,4095,0.0,0.0,0.0
0.8827710151672363,4095,0.0,0.0,0.0
0.8972554206848145,4095,0.0,0.0,0.0
0.9073092937469482,4095,0.0,0.0,0.0
0.917346715927124,4095,0.0,0.0,0.0
0.9187419414520264,4095,0.0,0.0,0.0
0.9322984218597412,4095,0.0,0.0,0.0
0.9435245990753174,4095,0.0,0.0,0.0
0.9557883739471436,4095,0.0,0.0,0.0
0.9669172763824463,4095,0.0,0.0,0.0
0.973982572555542,4095,0.0,0.0,0.0
0.987133264541626,4095,0.0,0.0,0.0
0.9950046539306641,4095,0.0,0.0,0.0
1.005422592163086,4095,0.0,0.0,0.0
1.0168027877807617,4095,0.0,0.0,0.0
1.0277283191680908,4095,0.0,0.0,0.0
1.0382797718048096,4095,0.0,0.0,0.0
1.0475637912750244,4095,0.0,0.0,0.0
1.0576448440551758,4095,0.0,0.0,0.0
1.0647692680358887,4095,0.0,0.0,0.0
1.0772180557250977,4095,0.0,0.0,0.0
1.0819411277770996,4095,0.0,0.0,0.0
1.0967261791229248,4095,0.0,0.0,0.0
1.1078433990478516,4095,0.0,0.0,0.0
1.11688232421875,4095,0.0,0.0,0.0
1.1241405010223389,4095,0.0,0.0,0.0
1.1331822872161865,4095,0.0,0.0,0.0
1.140012264251709,4095,0.0,0.0,0.0
1.1552510261535645,4095,0.0,0.0,0.0
1.1642303466796875,4095,0.0,0.0,0.0
1.1732101440429688,4095,0.0,0.0,0.0
1.1865832805633545,4095,0.0,0.0,0.0
1.1931769847869873,4095,0.0,0.0,0.0
1.2051782608032227,4095,0.0,0.0,0.0
1.209855556488037,4095,0.0,0.0,0.0
1.2221872806549072,4095,0.0,0.0,0.0
1.2332539558410645,4095,0.0,0.0,0.0
1.2400789260864258,4095,0.0,0.0,0.0
1.2574048042297363,4095,0.0,0.0,0.0
1.2654170989990234,4095,0.0,0.0,0.0
1.2720282077789307,4095,0.0,0.0,0.0
1.2800297737121582,4095,0.0,0.0,0.0
1.2933533191680908,4095,0.0,0.0,0.0
1.307236909866333,4095,0.0,0.0,0.0
1.317201852798462,4095,0.0,0.0,0.0
1.3247907161712646,4095,0.0,0.0,0.0
1.3327996730804443,4095,0.0,0.0,0.0
1.340162754058838,4095,0.0,0.0,0.0
1.3552672863006592,4095,0.0,0.0,0.0
1.3642151355743408,4095,0.0,0.0,0.0
1.3729727268218994,4095,0.0,0.0,0.0
1.3809871673583984,4095,0.0,0.0,0.0
1.3917033672332764,4095,0.0,0.0,0.0
1.4071309566497803,4095,0.0,0.0,0.0
1.4161372184753418,4095,0.0,0.0,0.0
1.4239296913146973,4095,0.0,0.0,0.0
1.4378907680511475,4095,0.0,0.0,0.0
1.4400575160980225,4095,0.0,0.0,0.0
1.4574308395385742,4095,0.0,0.0,0.0
1.4654417037963867,4095,0.0,0.0,0.0
1.472691535949707,4095,0.0,0.0,0.0
1.4875807762145996,4095,0.0,0.0,0.0
1.4927451610565186,4095,0.0,0.0,0.0
1.507554292678833,4095,0.0,0.0,0.0
1.517005205154419,4095,0.0,0.0,0.0
1.5247390270233154,4095,0.0,0.0,0.0
1.5380940437316895,4095,0.0,0.0,0.0
1.5416228771209717,4095,0.0,0.0,0.0
1.5547254085540771,4095,0.0,0.0,0.0
1.5654475688934326,4095,0.0,0.0,0.0
1.573530912399292,4095,0.0,0.0,0.0
1.5876960754394531,4095,0.0,0.0,0.0
1.5922634601593018,4095,0.0,0.0,0.0
1.607663631439209,4095,0.0,0.0,0.0
1.607663631439209,4095,0.0,0.0,0.0
1.6274304389953613,4095,0.0,0.0,0.0
1.6374406814575195,4095,0.0,0.0,0.0
1.647538661956787,4095,0.0,0.0,0.0
1.6574046611785889,4095,0.0,0.0,0.0
1.6674175262451172,4095,0.0,0.0,0.0
1.6774306297302246,4095,0.0,0.0,0.0
1.6874394416809082,4095,0.0,0.0,0.0
1.6920783519744873,4095,0.0,0.0,0.0
1.7064275741577148,4095,0.0,0.0,0.0
1.7168822288513184,4095,0.0,0.0,0.0
1.727586030960083,4095,0.0,0.0,0.0
1.7378957271575928,4095,0.0,0.0,0.0
1.7403404712677002,4095,0.0,0.0,0.0
1.7553749084472656,4095,0.0,0.0,0.0
1.7643492221832275,4095,0.0,0.0,0.0
1.7730448246002197,4095,0.0,0.0,0.0
1.787733554840088,4095,0.0,0.0,0.0
1.788731336593628,4095,0.0,0.0,0.0
1.8063652515411377,4095,0.0,0.0,0.0
1.817387342453003,4095,0.0,0.0,0.0
1.8220634460449219,4095,0.0,0.0,0.0
1.837709665298462,37,0.0,0.0,0.0
1.8397259712219238,554,0.0,0.0,0.0
1.8553574085235596,142,0.0,0.0,0.0
1.8674311637878418,0,0.0,0.0,0.0
1.8720457553863525,133,0.0,0.0,0.0
1.882941484451294,0,0.0,0.0,0.0
1.8887460231781006,4095,0.0,0.0,0.0
1.905358076095581,0,0.0,0.0,0.0
1.9162604808807373,3855,0.0,0.0,0.0
1.9215853214263916,0,0.0,0.0,0.0
1.9370396137237549,3809,0.0,0.0,0.0
1.9466636180877686,0,0.0,0.0,0.0
1.9569504261016846,419,0.0,0.0,0.0
1.9659628868103027,0,0.0,0.0,0.0
1.9718844890594482,61,0.0,0.0,0.0
1.987715244293213,0,0.0,0.0,0.0
1.991011619567871,163,0.0,0.0,0.0
2.0075294971466064,0,0.0,0.0,0.0
2.0080342292785645,118,0.0,0.0,0.0
2.0230159759521484,0,0.0,0.0,0.0
2.037945032119751,37,0.0,0.0,0.0
2.0399842262268066,248,0.0,0.0,0.0
2.055326461791992,27,0.0,0.0,0.0
2.0653443336486816,2674,0.0,0.0,0.0
2.073007106781006,13,0.0,0.0,0.0
2.087705373764038,2518,0.0,0.0,0.0
2.0896997451782227,33,0.0,0.0,0.0
2.106328248977661,2187,0.0,0.0,0.0
2.1178793907165527,13,0.0,0.0,0.0
2.1230010986328125,704,0.0,0.0,0.0
2.1377384662628174,94,0.0,0.0,0.0
2.1377384662628174,467,0.0,0.0,0.0
2.157020330429077,58,0.0,0.0,0.0
2.166166305541992,274,0.0,0.0,0.0
2.1745200157165527,111,0.0,0.0,0.0
2.188169002532959,80,0.0,0.0,0.0
2.19791579246521,96,0.0,0.0,0.0
2.2053492069244385,2783,0.0,0.0,0.0
2.2163288593292236,57,0.0,0.0,0.0
2.2229580879211426,2814,0.0,0.0,0.0
2.2378664016723633,48,0.0,0.0,0.0
2.2399003505706787,2800,0.0,0.0,0.0
2.2568607330322266,10,0.0,0.0,0.0
2.267293691635132,2527,0.0,0.0,0.0
2.272949457168579,0,0.0,0.0,0.0
2.287806987762451,2187,0.0,0.0,0.0
2.289989948272705,0,0.0,0.0,0.0
2.306279182434082,726,0.0,0.0,0.0
2.3162097930908203,33,0.0,0.0,0.0
2.322946786880493,652,0.0,0.0,0.0
2.3377954959869385,17,0.0,0.0,0.0
2.3377954959869385,2515,0.0,0.0,0.0
2.356265068054199,2,0.0,0.0,0.0
2.366781711578369,2043,0.0,0.0,0.0
2.3771274089813232,0,0.0,0.0,0.0
2.388148784637451,1997,0.0,0.0,0.0
2.3905725479125977,0,0.0,0.0,0.0
2.406271457672119,1941,0.0,0.0,0.0
2.4142796993255615,0,0.0,0.0,0.0
2.4277777671813965,1709,0.0,0.0,0.0
2.4378821849823,0,0.0,0.0,0.0
2.440840482711792,1803,0.0,0.0,0.0
2.4562454223632812,30,0.0,0.0,0.0
2.467677116394043,1874,0.0,0.0,0.0
2.471963882446289,29,0.0,0.0,0.0
2.4877099990844727,1787,0.0,0.0,0.0
2.4877099990844727,0,0.0,0.0,0.0
2.5062406063079834,1680,0.0,0.0,0.0
2.5172119140625,0,0.0,0.0,0.0
2.5241472721099854,1605,0.0,0.0,0.0
2.537701368331909,2514,0.0,0.0,0.0
2.538701057434082,1650,0.0,0.0,0.0
2.55523419380188,2368,0.0,0.0,0.0
2.5652449131011963,1264,0.0,0.0,0.0
2.57289981842041,2122,0.0,0.0,0.0
2.5856740474700928,1296,0.0,0.0,0.0
2.5975191593170166,1841,0.0,0.0,0.0
2.60699462890625,1064,0.0,0.0,0.0
2.617971420288086,1680,0.0,0.0,0.0
2.6229004859924316,1197,0.0,0.0,0.0
2.637505292892456,1706,0.0,0.0,0.0
2.6469733715057373,1218,0.0,0.0,0.0
2.6573421955108643,1734,0.0,0.0,0.0
2.6664531230926514,1104,0.0,0.0,0.0
2.6727712154388428,1693,0.0,0.0,0.0
2.6875410079956055,1155,0.0,0.0,0.0
2.688537359237671,1796,0.0,0.0,0.0
2.707430362701416,963,0.0,0.0,0.0
2.716891288757324,1812,0.0,0.0,0.0
2.7276790142059326,1094,0.0,0.0,0.0
2.737539052963257,1856,0.0,0.0,0.0
2.7475316524505615,1047,0.0,0.0,0.0
2.756165027618408,1688,0.0,0.0,0.0
2.7670934200286865,870,0.0,0.0,0.0
2.777473211288452,1518,0.0,0.0,0.0
2.7875747680664062,811,0.0,0.0,0.0
2.797480583190918,1275,0.0,0.0,0.0
2.8076093196868896,821,0.0,0.0,0.0
2.8099982738494873,1223,0.0,0.0,0.0
2.8339507579803467,884,0.0,0.0,0.0
2.8368337154388428,966,0.0,0.0,0.0
2.846559762954712,743,0.0,0.0,0.0
2.8571629524230957,1763,0.0,0.0,0.0
2.867415428161621,1889,0.0,0.0,0.0
2.877277374267578,1754,0.0,0.0,0.0
2.887456178665161,2080,0.0,0.0,0.0
2.8884546756744385,1734,0.0,0.0,0.0
2.9065489768981934,1845,0.0,0.0,0.0
2.9165737628936768,1613,0.0,0.0,0.0
2.922792434692383,1548,0.0,0.0,0.0
2.937530040740967,1435,0.0,0.0,0.0
2.9442508220672607,1449,0.0,0.0,0.0
2.9561221599578857,1445,0.0,0.0,0.0
2.9661409854888916,1359,0.0,0.0,0.0
2.9718284606933594,1255,0.0,0.0,0.0
2.9876184463500977,1358,0.0,0.0,0.0
2.9886155128479004,1008,0.0,0.0,0.0
3.0072596073150635,1165,0.0,0.0,0.0
3.0164313316345215,1094,0.0,0.0,0.0
3.023324966430664,929,0.0,0.0,0.0
3.037372589111328,867,0.0,0.0,0.0
3.0428199768066406,670,0.0,0.0,0.0
3.0551934242248535,854,0.0,0.0,0.0
3.067805528640747,2018,0.0,0.0,0.0
3.0728139877319336,703,0.0,0.0,0.0
3.087599039077759,1745,0.0,0.0,0.0
3.0895895957946777,751,0.0,0.0,0.0
3.1061220169067383,1380,0.0,0.0,0.0
3.1161608695983887,917,0.0,0.0,0.0
3.1227972507476807,2101,0.0,0.0,0.0
3.1375844478607178,739,0.0,0.0,0.0
3.14038348197937,1925,0.0,0.0,0.0
3.1556758880615234,723,0.0,0.0,0.0
3.163691997528076,691,0.0,0.0,0.0
3.171987771987915,1019,0.0,0.0,0.0
3.188336133956909,1950,0.0,0.0,0.0
3.1893327236175537,1781,0.0,0.0,0.0
3.1993422508239746,2064,0.0,0.0,0.0
3.2174768447875977,895,0.0,0.0,0.0
3.227236270904541,2031,0.0,0.0,0.0
3.237696409225464,1021,0.0,0.0,0.0
3.240443706512451,2020,0.0,0.0,0.0
3.255291700363159,998,0.0,0.0,0.0
3.2653303146362305,2075,0.0,0.0,0.0
3.2778117656707764,982,0.0,0.0,0.0
3.2778117656707764,1966,0.0,0.0,0.0
3.297818899154663,1010,0.0,0.0,0.0
3.3078184127807617,2037,0.0,0.0,0.0
3.3178188800811768,1041,0.0,0.0,0.0
3.3278186321258545,2006,0.0,0.0,0.0
3.3278186321258545,1130,0.0,0.0,0.0
3.3478317260742188,2066,0.0,0.0,0.0
3.357818365097046,1052,0.0,0.0,0.0
3.36781907081604,1998,0.0,0.0,0.0
3.3778183460235596,981,0.0,0.0,0.0
3.3778183460235596,1342,0.0,0.0,0.0
3.3892905712127686,1104,0.0,0.0,0.0
3.3993659019470215,1913,0.0,0.0,0.0
3.4093668460845947,1200,0.0,0.0,0.0
3.419365882873535,634,0.0,0.0,0.0
3.437542676925659,1234,0.0,0.0,0.0
3.4469566345214844,694,0.0,0.0,0.0
3.4575562477111816,1514,0.0,0.0,0.0
3.4665963649749756,653,0.0,0.0,0.0
3.4720230102539062,1755,0.0,0.0,0.0
3.4874634742736816,633,0.0,0.0,0.0
3.4884982109069824,1886,0.0,0.0,0.0
3.4998257160186768,880,0.0,0.0,0.0
3.5098350048065186,1877,0.0,0.0,0.0
3.519835948944092,1735,0.0,0.0,0.0
3.5298357009887695,1719,0.0,0.0,0.0
3.5398826599121094,1856,0.0,0.0,0.0
3.557396650314331,1754,0.0,0.0,0.0
3.558417320251465,1406,0.0,0.0,0.0
3.5684657096862793,1523,0.0,0.0,0.0
3.578465223312378,1401,0.0,0.0,0.0
3.588466167449951,1408,0.0,0.0,0.0
3.5984649658203125,1273,0.0,0.0,0.0
3.609757661819458,1249,0.0,0.0,0.0
3.6197993755340576,1138,0.0,0.0,0.0
3.6310226917266846,1166,0.0,0.0,0.0
3.6410322189331055,994,0.0,0.0,0.0
3.6537086963653564,1518,0.0,0.0,0.0
3.6627678871154785,868,0.0,0.0,0.0
3.6775214672088623,2041,0.0,0.0,0.0
3.6878650188446045,626,0.0,0.0,0.0
3.6902778148651123,1709,0.0,0.0,0.0
3.705064535140991,2068,0.0,0.0,0.0
3.7133214473724365,1652,0.0,0.0,0.0
3.722294569015503,1952,0.0,0.0,0.0
3.7322962284088135,1963,0.0,0.0,0.0
3.7476248741149902,1678,0.0,0.0,0.0
3.757659912109375,1596,0.0,0.0,0.0
3.767719268798828,1455,0.0,0.0,0.0
3.7776987552642822,1282,0.0,0.0,0.0
3.7876346111297607,1233,0.0,0.0,0.0
3.7976605892181396,1319,0.0,0.0,0.0
3.807659149169922,1473,0.0,0.0,0.0
3.8176565170288086,1015,0.0,0.0,0.0
3.8276329040527344,1071,0.0,0.0,0.0
3.837634325027466,973,0.0,0.0,0.0
3.847421169281006,996,0.0,0.0,0.0
3.850316286087036,689,0.0,0.0,0.0
3.867281675338745,1487,0.0,0.0,0.0
3.877669095993042,1810,0.0,0.0,0.0
3.8876829147338867,876,0.0,0.0,0.0
3.891594886779785,811,0.0,0.0,0.0
3.903989315032959,1904,0.0,0.0,0.0
3.9140729904174805,927,0.0,0.0,0.0
3.9277617931365967,1930,0.0,0.0,0.0
3.9377706050872803,974,0.0,0.0,0.0
3.9478628635406494,1767,0.0,0.0,0.0
3.948859214782715,1006,0.0,0.0,0.0
3.958911895751953,1812,0.0,0.0,0.0
3.972446918487549,870,0.0,0.0,0.0
3.9824838638305664,1664,0.0,0.0,0.0
3.992511034011841,848,0.0,0.0,0.0
4.002483606338501,1582,0.0,0.0,0.0
4.012483596801758,830,0.0,0.0,0.0
4.024656295776367,1153,0.0,0.0,0.0
4.034667730331421,985,0.0,0.0,0.0
4.044668674468994,1179,0.0,0.0,0.0
4.054669380187988,1940,0.0,0.0,0.0
4.067065477371216,910,0.0,0.0,0.0
4.073366403579712,2031,0.0,0.0,0.0
4.0872437953948975,1415,0.0,0.0,0.0
4.097572088241577,833,0.0,0.0,0.0
4.106375694274902,1305,0.0,0.0,0.0
4.115596771240234,829,0.0,0.0,0.0
4.121885776519775,1162,0.0,0.0,0.0
4.137338399887085,850,0.0,0.0,0.0
4.138389825820923,1425,0.0,0.0,0.0
4.150699615478516,890,0.0,0.0,0.0
4.162018537521362,1373,0.0,0.0,0.0
4.176783561706543,821,0.0,0.0,0.0
4.182567119598389,1520,0.0,0.0,0.0
4.193882703781128,1011,0.0,0.0,0.0
4.203229188919067,1526,0.0,0.0,0.0
4.214850187301636,943,0.0,0.0,0.0
4.2240355014801025,1424,0.0,0.0,0.0
4.234072685241699,779,0.0,0.0,0.0
4.247502326965332,1425,0.0,0.0,0.0
4.257775783538818,1878,0.0,0.0,0.0
4.258771181106567,1414,0.0,0.0,0.0
4.268813371658325,1905,0.0,0.0,0.0
4.27881646156311,1387,0.0,0.0,0.0
4.288812875747681,1828,0.0,0.0,0.0
4.307626724243164,1235,0.0,0.0,0.0
4.317402362823486,1263,0.0,0.0,0.0
4.322046995162964,1586,0.0,0.0,0.0
4.337361574172974,1078,0.0,0.0,0.0
4.340350151062012,1456,0.0,0.0,0.0
4.355051755905151,912,0.0,0.0,0.0
4.3650922775268555,1287,0.0,0.0,0.0
4.375058650970459,783,0.0,0.0,0.0
4.385059833526611,1102,0.0,0.0,0.0
4.396286249160767,686,0.0,0.0,0.0
4.406299829483032,989,0.0,0.0,0.0
4.417757511138916,579,0.0,0.0,0.0
4.427823066711426,832,0.0,0.0,0.0
4.427823066711426,1275,0.0,0.0,0.0
4.447765350341797,1678,0.0,0.0,0.0
4.4577882289886475,1921,0.0,0.0,0.0
4.467763662338257,1629,0.0,0.0,0.0
4.477764844894409,1300,0.0,0.0,0.0
4.477764844894409,1419,0.0,0.0,0.0
4.498090744018555,945,0.0,0.0,0.0
4.500082492828369,1201,0.0,0.0,0.0
4.516854763031006,1008,0.0,0.0,0.0
4.526693105697632,944,0.0,0.0,0.0
4.537735462188721,913,0.0,0.0,0.0
4.5392091274261475,903,0.0,0.0,0.0
4.555093050003052,832,0.0,0.0,0.0
4.565133333206177,1878,0.0,0.0,0.0
4.576796293258667,531,0.0,0.0,0.0
4.5829455852508545,1813,0.0,0.0,0.0
4.592965364456177,463,0.0,0.0,0.0
4.60296368598938,1616,0.0,0.0,0.0
4.612961769104004,2087,0.0,0.0,0.0
4.62402606010437,1297,0.0,0.0,0.0
4.634068965911865,2320,0.0,0.0,0.0
4.637959003448486,1411,0.0,0.0,0.0
4.648794174194336,1983,0.0,0.0,0.0
4.658794164657593,1419,0.0,0.0,0.0
4.67233681678772,1132,0.0,0.0,0.0
4.682385444641113,1138,0.0,0.0,0.0
4.6976659297943115,1160,0.0,0.0,0.0
4.707674264907837,835,0.0,0.0,0.0
4.717674255371094,1342,0.0,0.0,0.0
4.728994369506836,768,0.0,0.0,0.0
4.737433671951294,1472,0.0,0.0,0.0
4.74541163444519,1044,0.0,0.0,0.0
4.757059335708618,1881,0.0,0.0,0.0
4.766360759735107,927,0.0,0.0,0.0
4.775055408477783,1862,0.0,0.0,0.0
4.787077903747559,1139,0.0,0.0,0.0
4.79619836807251,1931,0.0,0.0,0.0
4.80619740486145,1047,0.0,0.0,0.0
4.814344882965088,1755,0.0,0.0,0.0
4.821683406829834,1382,0.0,0.0,0.0
4.83141016960144,1263,0.0,0.0,0.0
4.843631982803345,1494,0.0,0.0,0.0
4.856338262557983,1225,0.0,0.0,0.0
4.866346836090088,1761,0.0,0.0,0.0
4.876345634460449,1222,0.0,0.0,0.0
4.886346340179443,1904,0.0,0.0,0.0
4.8963470458984375,1243,0.0,0.0,0.0
4.906347036361694,1934,0.0,0.0,0.0
4.916345834732056,917,0.0,0.0,0.0
4.927369117736816,1689,0.0,0.0,0.0
4.937966823577881,887,0.0,0.0,0.0
4.946955442428589,1787,0.0,0.0,0.0
4.957435607910156,959,0.0,0.0,0.0
4.967683553695679,1697,0.0,0.0,0.0
4.9738500118255615,863,0.0,0.0,0.0
4.987060546875,1661,0.0,0.0,0.0
4.989387512207031,944,0.0,0.0,0.0
5.000812768936157,1565,0.0,0.0,0.0
5.010837554931641,871,0.0,0.0,0.0
5.027402639389038,1476,0.0,0.0,0.0
5.037411689758301,835,0.0,0.0,0.0
5.037958860397339,1494,0.0,0.0,0.0
5.048104763031006,773,0.0,0.0,0.0
5.059028148651123,1488,0.0,0.0,0.0
5.069029092788696,903,0.0,0.0,0.0
5.07902717590332,1327,0.0,0.0,0.0
5.0963428020477295,879,0.0,0.0,0.0
5.106351852416992,1088,0.0,0.0,0.0
5.116352319717407,784,0.0,0.0,0.0
5.1263792514801025,1142,0.0,0.0,0.0
5.136350870132446,944,0.0,0.0,0.0
5.1389312744140625,1633,0.0,0.0,0.0
5.153852462768555,1131,0.0,0.0,0.0
5.1672985553741455,1613,0.0,0.0,0.0
5.172905206680298,1121,0.0,0.0,0.0
5.18701696395874,4095,0.0,0.0,0.0
5.190009832382202,4095,0.0,0.0,0.0
5.200085401535034,4095,0.0,0.0,0.0
5.208132743835449,4095,0.0,0.0,0.0
5.218134880065918,4095,0.0,0.0,0.0
5.228134393692017,4095,0.0,0.0,0.0
5.237908363342285,4095,0.0,0.0,0.0
5.249079704284668,4095,0.0,0.0,0.0
5.259086608886719,4095,0.0,0.0,0.0
5.269087791442871,4095,0.0,0.0,0.0
5.279089450836182,4095,0.0,0.0,0.0
5.2878313064575195,4095,0.0,0.0,0.0
5.2981932163238525,4095,0.0,0.0,0.0
5.30913233757019,4095,0.0,0.0,0.0
5.319133758544922,4095,0.0,0.0,0.0
5.329131364822388,4095,0.0,0.0,0.0
5.33784556388855,1633,0.0,0.0,0.0
5.348122835159302,4095,0.0,0.0,0.0
5.367609739303589,1377,0.0,0.0,0.0
5.377372741699219,4095,0.0,0.0,0.0
5.387066602706909,4095,0.0,0.0,0.0
5.397574186325073,4095,0.0,0.0,0.0
5.407640218734741,4095,0.0,0.0,0.0
5.41744589805603,4095,0.0,0.0,0.0
5.424645662307739,4095,0.0,0.0,0.0
5.434864044189453,4095,0.0,0.0,0.0
5.444864749908447,4095,0.0,0.0,0.0
5.454865455627441,4095,0.0,0.0,0.0
5.4648659229278564,4095,0.0,0.0,0.0
5.477452754974365,4095,0.0,0.0,0.0
5.487462759017944,4095,0.0,0.0,0.0
5.48789119720459,4095,0.0,0.0,0.0
5.499006509780884,4095,0.0,0.0,0.0
5.50901460647583,4095,0.0,0.0,0.0
5.521165370941162,4095,0.0,0.0,0.0
5.532022476196289,4095,0.0,0.0,0.0
5.538853645324707,4095,0.0,0.0,0.0
5.557443141937256,4095,0.0,0.0,0.0
5.567456245422363,4095,0.0,0.0,0.0
5.578721046447754,4095,0.0,0.0,0.0
5.587141990661621,4095,0.0,0.0,0.0
5.597648620605469,4095,0.0,0.0,0.0
5.607429265975952,4095,0.0,0.0,0.0
5.615453243255615,4095,0.0,0.0,0.0
5.622669219970703,4095,0.0,0.0,0.0
5.636907577514648,4095,0.0,0.0,0.0
5.63895058631897,4095,0.0,0.0,0.0
5.649925947189331,4095,0.0,0.0,0.0
5.659921646118164,4095,0.0,0.0,0.0
5.669915676116943,4095,0.0,0.0,0.0
5.679931879043579,4095,0.0,0.0,0.0
5.688795804977417,4095,0.0,0.0,0.0
5.700178861618042,4095,0.0,0.0,0.0
5.711164951324463,4095,0.0,0.0,0.0
5.72116494178772,4095,0.0,0.0,0.0
5.7311646938323975,4095,0.0,0.0,0.0
5.738840103149414,4095,0.0,0.0,0.0
5.7488484382629395,4095,0.0,0.0,0.0
5.758849382400513,4095,0.0,0.0,0.0
5.772111892700195,4095,0.0,0.0,0.0
5.7821104526519775,4095,0.0,0.0,0.0
5.797207832336426,4095,0.0,0.0,0.0
5.8058247566223145,4095,0.0,0.0,0.0
5.815090656280518,4095,0.0,0.0,0.0
5.827440023422241,4095,0.0,0.0,0.0
5.836930274963379,4095,0.0,0.0,0.0
5.839184284210205,4095,0.0,0.0,0.0
5.850041151046753,4095,0.0,0.0,0.0
5.8600404262542725,4095,0.0,0.0,0.0
5.870065450668335,4095,0.0,0.0,0.0
5.880040884017944,4095,0.0,0.0,0.0
5.8887550830841064,4095,0.0,0.0,0.0
5.8987648487091064,4095,0.0,0.0,0.0
5.908766269683838,4095,0.0,0.0,0.0
5.91876482963562,4095,0.0,0.0,0.0
5.928764820098877,4095,0.0,0.0,0.0
5.938857555389404,4095,0.0,0.0,0.0
5.948894500732422,4095,0.0,0.0,0.0
5.958895921707153,4095,0.0,0.0,0.0
5.971078634262085,4095,0.0,0.0,0.0
5.982004880905151,4095,0.0,0.0,0.0
5.987761497497559,4095,0.0,0.0,0.0
5.999973773956299,4095,0.0,0.0,0.0
6.016847133636475,4095,0.0,0.0,0.0
6.027278184890747,4095,0.0,0.0,0.0
6.036865234375,4095,0.0,0.0,0.0
6.039752244949341,4095,0.0,0.0,0.0
6.05742883682251,4095,0.0,0.0,0.0
6.065438747406006,4095,0.0,0.0,0.0
6.074481964111328,4095,0.0,0.0,0.0
6.084497451782227,4095,0.0,0.0,0.0
6.08872652053833,4095,0.0,0.0,0.0
6.098735094070435,4095,0.0,0.0,0.0
6.116541385650635,4095,0.0,0.0,0.0
6.12770414352417,4095,0.0,0.0,0.0
6.12770414352417,4095,0.0,0.0,0.0
6.137713432312012,4095,0.0,0.0,0.0
6.157729625701904,4095,0.0,0.0,0.0
6.167714834213257,4095,0.0,0.0,0.0
6.177713394165039,4095,0.0,0.0,0.0
6.177713394165039,4095,0.0,0.0,0.0
6.188759803771973,4095,0.0,0.0,0.0
6.201007127761841,4095,0.0,0.0,0.0
6.212222099304199,4095,0.0,0.0,0.0
6.224852561950684,4095,0.0,0.0,0.0
6.237414121627808,4095,0.0,0.0,0.0
6.2418129444122314,4095,0.0,0.0,0.0
6.257057428359985,4095,0.0,0.0,0.0
6.265058517456055,4095,0.0,0.0,0.0
6.271222829818726,4095,0.0,0.0,0.0
6.286742210388184,4095,0.0,0.0,0.0
6.287739276885986,4095,0.0,0.0,0.0
6.307767391204834,4095,0.0,0.0,0.0
6.3177666664123535,4095,0.0,0.0,0.0
6.3177666664123535,4095,0.0,0.0,0.0
6.337579011917114,4095,0.0,0.0,0.0
6.347442150115967,4095,0.0,0.0,0.0
6.3574512004852295,4095,0.0,0.0,0.0
6.367454290390015,4095,0.0,0.0,0.0
6.377453804016113,4095,0.0,0.0,0.0
6.387452125549316,4095,0.0,0.0,0.0
6.388626575469971,4095,0.0,0.0,0.0
6.398646831512451,4095,0.0,0.0,0.0
6.416675567626953,4095,0.0,0.0,0.0
6.417672634124756,4095,0.0,0.0,0.0
6.436955690383911,4095,0.0,0.0,0.0
6.44756293296814,4095,0.0,0.0,0.0
6.456036567687988,4095,0.0,0.0,0.0
6.465016603469849,4095,0.0,0.0,0.0
6.471468448638916,4095,0.0,0.0,0.0
6.486733913421631,4095,0.0,0.0,0.0
6.488787412643433,4095,0.0,0.0,0.0
6.498916149139404,4095,0.0,0.0,0.0
6.509865760803223,4095,0.0,0.0,0.0
6.519865274429321,4095,0.0,0.0,0.0
6.5375800132751465,4095,0.0,0.0,0.0
6.53857684135437,4095,0.0,0.0,0.0
6.54861044883728,4095,0.0,0.0,0.0
6.5585856437683105,4095,0.0,0.0,0.0
6.5686116218566895,4095,0.0,0.0,0.0
6.578585624694824,4095,0.0,0.0,0.0
6.589742660522461,4095,0.0,0.0,0.0
6.601047992706299,4095,0.0,0.0,0.0
6.611148357391357,4095,0.0,0.0,0.0
6.626595497131348,4095,0.0,0.0,0.0
6.629639387130737,4095,0.0,0.0,0.0
6.643881797790527,4095,0.0,0.0,0.0
6.6570212841033936,4095,0.0,0.0,0.0
6.661861896514893,4095,0.0,0.0,0.0
6.677501201629639,4095,0.0,0.0,0.0
6.686825513839722,4095,0.0,0.0,0.0
6.688951253890991,4095,0.0,0.0,0.0
6.700590133666992,4095,0.0,0.0,0.0
6.7106640338897705,4095,0.0,0.0,0.0
6.727784156799316,4095,0.0,0.0,0.0
6.727784156799316,4095,0.0,0.0,0.0
6.747791528701782,4095,0.0,0.0,0.0
6.757828712463379,4095,0.0,0.0,0.0
6.767791509628296,4095,0.0,0.0,0.0
6.777793645858765,4095,0.0,0.0,0.0
6.777793645858765,4095,0.0,0.0,0.0
6.787714719772339,4095,0.0,0.0,0.0
6.800036668777466,4095,0.0,0.0,0.0
6.810091733932495,4095,0.0,0.0,0.0
6.820091724395752,4095,0.0,0.0,0.0
6.8300933837890625,4095,0.0,0.0,0.0
6.840093612670898,4095,0.0,0.0,0.0
6.855106353759766,4095,0.0,0.0,0.0
6.867354869842529,4095,0.0,0.0,0.0
6.874863862991333,4095,0.0,0.0,0.0
6.8870933055877686,4095,0.0,0.0,0.0
6.897606134414673,4095,0.0,0.0,0.0
6.9046244621276855,4095,0.0,0.0,0.0
6.917804956436157,4095,0.0,0.0,0.0
6.927810907363892,4095,0.0,0.0,0.0
6.927810907363892,4095,0.0,0.0,0.0
6.947811603546143,4095,0.0,0.0,0.0
6.957828521728516,4095,0.0,0.0,0.0
6.967811822891235,4095,0.0,0.0,0.0
6.978098154067993,4095,0.0,0.0,0.0
6.9790918827056885,4095,0.0,0.0,0.0
6.988680601119995,4095,0.0,0.0,0.0
6.998688697814941,4095,0.0,0.0,0.0
7.008688449859619,4095,0.0,0.0,0.0
7.018689155578613,4095,0.0,0.0,0.0
7.028687953948975,4095,0.0,0.0,0.0
7.038686752319336,3803,0.0,0.0,0.0
7.0486884117126465,4095,0.0,0.0,0.0
7.062534809112549,4095,0.0,0.0,0.0
7.077531814575195,4095,0.0,0.0,0.0
7.0866968631744385,4095,0.0,0.0,0.0
7.097163200378418,4095,0.0,0.0,0.0
7.104665040969849,4095,0.0,0.0,0.0
7.114043474197388,4095,0.0,0.0,0.0
7.122187852859497,4095,0.0,0.0,0.0
7.137532472610474,4095,0.0,0.0,0.0
7.1477882862091064,4095,0.0,0.0,0.0
7.157794237136841,4095,0.0,0.0,0.0
7.1677985191345215,4095,0.0,0.0,0.0
7.177794694900513,4095,0.0,0.0,0.0
7.177794694900513,4095,0.0,0.0,0.0
7.197232723236084,4095,0.0,0.0,0.0
7.207441806793213,4095,0.0,0.0,0.0
7.20943284034729,4095,0.0,0.0,0.0
7.219472408294678,4095,0.0,0.0,0.0
7.229471206665039,4095,0.0,0.0,0.0
7.239469528198242,4095,0.0,0.0,0.0
7.251878499984741,4095,0.0,0.0,0.0
7.261900186538696,4095,0.0,0.0,0.0
7.27189826965332,4095,0.0,0.0,0.0
7.286721706390381,4095,0.0,0.0,0.0
7.293848276138306,4095,0.0,0.0,0.0
7.3033013343811035,4095,0.0,0.0,0.0
7.311300992965698,4095,0.0,0.0,0.0
7.327324628829956,4095,0.0,0.0,0.0
7.337539911270142,4095,0.0,0.0,0.0
7.34561824798584,4095,0.0,0.0,0.0
7.35561728477478,4095,0.0,0.0,0.0
7.3656165599823,4095,0.0,0.0,0.0
7.375617504119873,4095,0.0,0.0,0.0
7.38561749458313,4095,0.0,0.0,0.0
7.395617961883545,4095,0.0,0.0,0.0
7.4056174755096436,4095,0.0,0.0,0.0
7.4174346923828125,4095,0.0,0.0,0.0
7.427465438842773,4095,0.0,0.0,0.0
7.43744969367981,4095,0.0,0.0,0.0
7.438724994659424,4095,0.0,0.0,0.0
7.448733806610107,4095,0.0,0.0,0.0
7.458735466003418,4095,0.0,0.0,0.0
7.468733787536621,4095,0.0,0.0,0.0
7.478734493255615,4095,0.0,0.0,0.0
7.496750593185425,4095,0.0,0.0,0.0
7.507799863815308,4095,0.0,0.0,0.0
7.517189025878906,4095,0.0,0.0,0.0
7.522512435913086,4095,0.0,0.0,0.0
7.536628007888794,4095,0.0,0.0,0.0
7.538622140884399,4095,0.0,0.0,0.0
7.557644367218018,4095,0.0,0.0,0.0
7.567666053771973,4095,0.0,0.0,0.0
7.577664852142334,4095,0.0,0.0,0.0
7.577664852142334,4095,0.0,0.0,0.0
7.5976643562316895,4095,0.0,0.0,0.0
7.607652187347412,4095,0.0,0.0,0.0
7.617649555206299,4095,0.0,0.0,0.0
7.627654552459717,4095,0.0,0.0,0.0
7.628965377807617,4095,0.0,0.0,0.0
7.639001846313477,4095,0.0,0.0,0.0
7.656303882598877,4095,0.0,0.0,0.0
7.6663453578948975,4095,0.0,0.0,0.0
7.676347494125366,4095,0.0,0.0,0.0
7.687419414520264,4095,0.0,0.0,0.0
7.697464227676392,3438,0.0,0.0,0.0
7.698462724685669,4095,0.0,0.0,0.0
7.71741509437561,2752,0.0,0.0,0.0
7.724783420562744,4095,0.0,0.0,0.0
7.737600803375244,2235,0.0,0.0,0.0
7.747851610183716,4095,0.0,0.0,0.0
7.75447940826416,2165,0.0,0.0,0.0
7.764517784118652,4095,0.0,0.0,0.0
7.774517774581909,1946,0.0,0.0,0.0
7.784517288208008,4095,0.0,0.0,0.0
7.79451847076416,1683,0.0,0.0,0.0
7.804518222808838,4095,0.0,0.0,0.0
7.814518213272095,1566,0.0,0.0,0.0
7.824517250061035,4095,0.0,0.0,0.0
7.83737587928772,1575,0.0,0.0,0.0
7.838373184204102,4095,0.0,0.0,0.0
7.848379611968994,1664,0.0,0.0,0.0
7.858379364013672,4095,0.0,0.0,0.0
7.868380069732666,1648,0.0,0.0,0.0
7.8783793449401855,4095,0.0,0.0,0.0
7.889529705047607,1665,0.0,0.0,0.0
7.899566650390625,4095,0.0,0.0,0.0
7.90956711769104,1600,0.0,0.0,0.0
7.919567108154297,4095,0.0,0.0,0.0
7.9368767738342285,2511,0.0,0.0,0.0
7.941817045211792,4095,0.0,0.0,0.0
7.955755949020386,4095,0.0,0.0,0.0
7.963761806488037,4095,0.0,0.0,0.0
7.9708802700042725,4095,0.0,0.0,0.0
7.982190847396851,4095,0.0,0.0,0.0
7.992200613021851,1238,0.0,0.0,0.0
8.002202272415161,4095,0.0,0.0,0.0
8.012201309204102,1286,0.0,0.0,0.0
8.023268699645996,4095,0.0,0.0,0.0
8.03330683708191,1557,0.0,0.0,0.0
8.043304204940796,4095,0.0,0.0,0.0
8.053304195404053,1714,0.0,0.0,0.0
8.063304424285889,4095,0.0,0.0,0.0
8.073304891586304,1915,0.0,0.0,0.0
8.087491035461426,4095,0.0,0.0,0.0
8.097498416900635,2207,0.0,0.0,0.0
8.107498407363892,4095,0.0,0.0,0.0
8.117498397827148,4095,0.0,0.0,0.0
8.127495765686035,4095,0.0,0.0,0.0
8.137498617172241,4095,0.0,0.0,0.0
8.138807773590088,4095,0.0,0.0,0.0
8.157001495361328,4095,0.0,0.0,0.0
8.166450023651123,4095,0.0,0.0,0.0
8.173412561416626,1657,0.0,0.0,0.0
8.186969995498657,4095,0.0,0.0,0.0
8.195980310440063,1651,0.0,0.0,0.0
8.20402979850769,4095,0.0,0.0,0.0
8.217540740966797,1551,0.0,0.0,0.0
8.227611541748047,4095,0.0,0.0,0.0
8.227611541748047,1565,0.0,0.0,0.0
8.23878288269043,4095,0.0,0.0,0.0
8.248821258544922,1644,0.0,0.0,0.0
8.258845329284668,4095,0.0,0.0,0.0
8.268821239471436,1559,0.0,0.0,0.0
8.27882194519043,4095,0.0,0.0,0.0
8.29004716873169,1535,0.0,0.0,0.0
8.300092935562134,4095,0.0,0.0,0.0
8.310064315795898,1351,0.0,0.0,0.0
8.320054292678833,4095,0.0,0.0,0.0
8.330086708068848,1291,0.0,0.0,0.0
8.347406387329102,4095,0.0,0.0,0.0
8.357419490814209,1135,0.0,0.0,0.0
8.367554903030396,4095,0.0,0.0,0.0
8.37746000289917,1155,0.0,0.0,0.0
8.387588739395142,4095,0.0,0.0,0.0
8.397110223770142,1040,0.0,0.0,0.0
8.404354810714722,4095,0.0,0.0,0.0
8.4123694896698,975,0.0,0.0,0.0
8.421796560287476,4095,0.0,0.0,0.0
8.431809425354004,947,0.0,0.0,0.0
8.441810131072998,4095,0.0,0.0,0.0
8.454020023345947,848,0.0,0.0,0.0
8.464027881622314,4095,0.0,0.0,0.0
8.474048137664795,688,0.0,0.0,0.0
8.484027624130249,4095,0.0,0.0,0.0
8.494028091430664,658,0.0,0.0,0.0
8.504027128219604,4095,0.0,0.0,0.0
8.51402997970581,705,0.0,0.0,0.0
8.524026870727539,4095,0.0,0.0,0.0
8.534026861190796,1607,0.0,0.0,0.0
8.544026613235474,4095,0.0,0.0,0.0
8.557428359985352,3487,0.0,0.0,0.0
8.567439794540405,4095,0.0,0.0,0.0
8.577085494995117,3229,0.0,0.0,0.0
8.587402582168579,4095,0.0,0.0,0.0
8.597487926483154,2303,0.0,0.0,0.0
8.604084491729736,4095,0.0,0.0,0.0
8.612093448638916,2997,0.0,0.0,0.0
8.620744705200195,4095,0.0,0.0,0.0
8.630757331848145,731,0.0,0.0,0.0
8.642069578170776,4095,0.0,0.0,0.0
8.652202606201172,1683,0.0,0.0,0.0
8.662202835083008,4095,0.0,0.0,0.0
8.676517963409424,601,0.0,0.0,0.0
8.679319620132446,4095,0.0,0.0,0.0
8.697430849075317,671,0.0,0.0,0.0
8.70744276046753,4095,0.0,0.0,0.0
8.717439889907837,773,0.0,0.0,0.0
8.727442741394043,4095,0.0,0.0,0.0
8.73744249343872,4095,0.0,0.0,0.0
8.747442960739136,4095,0.0,0.0,0.0
8.757442474365234,4095,0.0,0.0,0.0
8.767443180084229,4095,0.0,0.0,0.0
8.777444124221802,4095,0.0,0.0,0.0
8.787511587142944,4095,0.0,0.0,0.0
8.797607421875,3753,0.0,0.0,0.0
8.804600238800049,4095,0.0,0.0,0.0
8.812606573104858,3297,0.0,0.0,0.0
8.820698976516724,4095,0.0,0.0,0.0
8.837274312973022,2960,0.0,0.0,0.0
8.838270664215088,4095,0.0,0.0,0.0
8.848280668258667,0,0.0,0.0,0.0
8.867431640625,4095,0.0,0.0,0.0
8.877445459365845,0,0.0,0.0,0.0
8.887197732925415,4095,0.0,0.0,0.0
8.888194799423218,0,0.0,0.0,0.0
8.898199081420898,4095,0.0,0.0,0.0
8.908199787139893,0,0.0,0.0,0.0
8.920528650283813,4095,0.0,0.0,0.0
8.931500673294067,0,0.0,0.0,0.0
8.947232007980347,4095,0.0,0.0,0.0
8.956616401672363,0,0.0,0.0,0.0
8.96666955947876,4095,0.0,0.0,0.0
8.967666864395142,0,0.0,0.0,0.0
8.977676630020142,4095,0.0,0.0,0.0
8.994138717651367,10,0.0,0.0,0.0
9.007555484771729,4095,0.0,0.0,0.0
9.017226457595825,117,0.0,0.0,0.0
9.02208685874939,4095,0.0,0.0,0.0
9.036540269851685,0,0.0,0.0,0.0
9.04613471031189,4095,0.0,0.0,0.0
9.054950714111328,0,0.0,0.0,0.0
9.064963817596436,4095,0.0,0.0,0.0
9.074964046478271,0,0.0,0.0,0.0
9.084963321685791,4095,0.0,0.0,0.0
9.089045763015747,0,0.0,0.0,0.0
9.099050760269165,4095,0.0,0.0,0.0
9.109052658081055,3353,0.0,0.0,0.0
9.120379209518433,4095,0.0,0.0,0.0
9.131353378295898,3342,0.0,0.0,0.0
9.141352891921997,4095,0.0,0.0,0.0
9.15135407447815,3210,0.0,0.0,0.0
9.161353826522827,4095,0.0,0.0,0.0
9.171390056610107,3261,0.0,0.0,0.0
9.182383298873901,4095,0.0,0.0,0.0
9.197296142578125,2913,0.0,0.0,0.0
9.204756021499634,4095,0.0,0.0,0.0
9.217166900634766,2947,0.0,0.0,0.0
9.226974964141846,4095,0.0,0.0,0.0
9.237510919570923,2805,0.0,0.0,0.0
9.247214555740356,4095,0.0,0.0,0.0
9.254278421401978,2633,0.0,0.0,0.0
9.262305736541748,4095,0.0,0.0,0.0
9.271373510360718,2733,0.0,0.0,0.0
9.281380653381348,4095,0.0,0.0,0.0
9.291380643844604,2725,0.0,0.0,0.0
9.301391839981079,4095,0.0,0.0,0.0
9.311381816864014,2599,0.0,0.0,0.0
9.321381330490112,4095,0.0,0.0,0.0
9.331380844116211,2483,0.0,0.0,0.0
9.341380834579468,4095,0.0,0.0,0.0
9.357430934906006,2578,0.0,0.0,0.0
9.367444515228271,4095,0.0,0.0,0.0
9.370341539382935,2489,0.0,0.0,0.0
9.381214380264282,4095,0.0,0.0,0.0
9.391214847564697,2403,0.0,0.0,0.0
9.403712034225464,4095,0.0,0.0,0.0
9.41466498374939,2192,0.0,0.0,0.0
9.427321672439575,4095,0.0,0.0,0.0
9.437290668487549,2353,0.0,0.0,0.0
9.446847915649414,4095,0.0,0.0,0.0
9.453940391540527,2268,0.0,0.0,0.0
9.461978197097778,4095,0.0,0.0,0.0
9.470577716827393,1771,0.0,0.0,0.0
9.480588436126709,4095,0.0,0.0,0.0
9.490587949752808,1402,0.0,0.0,0.0
9.500590324401855,4095,0.0,0.0,0.0
9.51060962677002,1082,0.0,0.0,0.0
9.520588874816895,4095,0.0,0.0,0.0
9.530587434768677,1045,0.0,0.0,0.0
9.541791200637817,4095,0.0,0.0,0.0
9.557427167892456,915,0.0,0.0,0.0
9.56743574142456,4095,0.0,0.0,0.0
9.577441930770874,861,0.0,0.0,0.0
9.587565660476685,4095,0.0,0.0,0.0
9.588563919067383,710,0.0,0.0,0.0
9.59986424446106,4095,0.0,0.0,0.0
9.609872817993164,723,0.0,0.0,0.0
9.619871377944946,4095,0.0,0.0,0.0
9.637309074401855,592,0.0,0.0,0.0
9.6431884765625,4095,0.0,0.0,0.0
9.656932353973389,528,0.0,0.0,0.0
9.66594123840332,4095,0.0,0.0,0.0
9.670021772384644,432,0.0,0.0,0.0
9.687025308609009,4095,0.0,0.0,0.0
9.688023567199707,465,0.0,0.0,0.0
9.69803261756897,4095,0.0,0.0,0.0
9.716496706008911,350,0.0,0.0,0.0
9.726956129074097,4095,0.0,0.0,0.0
9.727953433990479,319,0.0,0.0,0.0
9.738591432571411,4095,0.0,0.0,0.0
9.749540090560913,234,0.0,0.0,0.0
9.759560585021973,4095,0.0,0.0,0.0
9.76953935623169,158,0.0,0.0,0.0
9.779539585113525,4095,0.0,0.0,0.0
9.789541006088257,115,0.0,0.0,0.0
9.799539804458618,4095,0.0,0.0,0.0
9.809540748596191,803,0.0,0.0,0.0
9.819538831710815,4095,0.0,0.0,0.0
9.829539775848389,4095,0.0,0.0,0.0
9.839540958404541,4095,0.0,0.0,0.0
9.857195854187012,4095,0.0,0.0,0.0
9.867573022842407,4095,0.0,0.0,0.0
9.877828598022461,4095,0.0,0.0,0.0
9.887405157089233,4095,0.0,0.0,0.0
9.897052526473999,4095,0.0,0.0,0.0
9.90408968925476,4095,0.0,0.0,0.0
9.912110090255737,4095,0.0,0.0,0.0
9.921152830123901,4095,0.0,0.0,0.0
9.931191682815552,4095,0.0,0.0,0.0
9.941159725189209,4095,0.0,0.0,0.0
9.951159715652466,4095,0.0,0.0,0.0
9.961159944534302,4095,0.0,0.0,0.0
9.973047256469727,4095,0.0,0.0,0.0
9.983063220977783,4095,0.0,0.0,0.0
9.993062973022461,4095,0.0,0.0,0.0
10.007405996322632,4095,0.0,0.0,0.0
10.017440557479858,4095,0.0,0.0,0.0
10.02742052078247,4095,0.0,0.0,0.0
10.0374276638031,4095,0.0,0.0,0.0
10.047447443008423,4095,0.0,0.0,0.0
10.0574369430542,4095,0.0,0.0,0.0
10.05877137184143,4095,0.0,0.0,0.0
10.07757019996643,4095,0.0,0.0,0.0
10.087173461914062,4095,0.0,0.0,0.0
10.096802473068237,4095,0.0,0.0,0.0
10.103790760040283,4095,0.0,0.0,0.0
10.111798286437988,4095,0.0,0.0,0.0
10.121473550796509,4095,0.0,0.0,0.0
10.131484270095825,4095,0.0,0.0,0.0
10.14743161201477,4095,0.0,0.0,0.0
10.157448291778564,4095,0.0,0.0,0.0
10.167443990707397,4095,0.0,0.0,0.0
10.170225620269775,4095,0.0,0.0,0.0
10.181095838546753,4095,0.0,0.0,0.0
10.191097021102905,4095,0.0,0.0,0.0
10.20109748840332,4095,0.0,0.0,0.0
10.21109652519226,4095,0.0,0.0,0.0
10.226885318756104,4095,0.0,0.0,0.0
10.229935646057129,4095,0.0,0.0,0.0
10.242222309112549,4095,0.0,0.0,0.0
10.252237558364868,4095,0.0,0.0,0.0
10.262238025665283,4095,0.0,0.0,0.0
10.274460554122925,4095,0.0,0.0,0.0
10.287115335464478,4095,0.0,0.0,0.0
10.296062231063843,4095,0.0,0.0,0.0
10.307445049285889,4095,0.0,0.0,0.0
10.31643009185791,4095,0.0,0.0,0.0
10.31942868232727,4095,0.0,0.0,0.0
10.33708143234253,4095,0.0,0.0,0.0
10.338063955307007,4095,0.0,0.0,0.0
10.348079681396484,4095,0.0,0.0,0.0
10.358079433441162,4095,0.0,0.0,0.0
10.36808180809021,4095,0.0,0.0,0.0
10.378079175949097,4095,0.0,0.0,0.0
10.388282775878906,4095,0.0,0.0,0.0
10.399226427078247,4095,0.0,0.0,0.0
10.417726755142212,4095,0.0,0.0,0.0
10.422117471694946,4095,0.0,0.0,0.0
10.432159423828125,4095,0.0,0.0,0.0
10.442153930664062,4095,0.0,0.0,0.0
10.452159643173218,4095,0.0,0.0,0.0
10.46215558052063,4095,0.0,0.0,0.0
10.472156524658203,4095,0.0,0.0,0.0
10.48754096031189,4095,0.0,0.0,0.0
10.496265172958374,4095,0.0,0.0,0.0
10.507440328598022,4095,0.0,0.0,0.0
10.515449523925781,4095,0.0,0.0,0.0
10.52068281173706,4095,0.0,0.0,0.0
10.536758661270142,4095,0.0,0.0,0.0
10.537762880325317,4095,0.0,0.0,0.0
10.547842264175415,4095,0.0,0.0,0.0
10.557775497436523,4095,0.0,0.0,0.0
10.570173501968384,4095,0.0,0.0,0.0
10.581041812896729,4095,0.0,0.0,0.0
10.591063976287842,4095,0.0,0.0,0.0
10.601040840148926,4095,0.0,0.0,0.0
10.611053466796875,4095,0.0,0.0,0.0
10.62743091583252,4095,0.0,0.0,0.0
10.637489557266235,4095,0.0,0.0,0.0
10.63848614692688,4095,0.0,0.0,0.0
10.649803161621094,4095,0.0,0.0,0.0
10.659817218780518,4095,0.0,0.0,0.0
10.669816255569458,4095,0.0,0.0,0.0
10.679845571517944,4095,0.0,0.0,0.0
10.697213172912598,4095,0.0,0.0,0.0
10.705016613006592,4095,0.0,0.0,0.0
10.713985681533813,4095,0.0,0.0,0.0
10.720353603363037,4095,0.0,0.0,0.0
10.737034797668457,4095,0.0,0.0,0.0
10.743791580200195,4095,0.0,0.0,0.0
10.755894660949707,4095,0.0,0.0,0.0
10.76591157913208,4095,0.0,0.0,0.0
10.775916576385498,4095,0.0,0.0,0.0
10.785910367965698,4095,0.0,0.0,0.0
10.795911073684692,4095,0.0,0.0,0.0
10.805912017822266,4095,0.0,0.0,0.0
10.815910577774048,4095,0.0,0.0,0.0
10.825910806655884,4095,0.0,0.0,0.0
10.837427854537964,4095,0.0,0.0,0.0
10.847440958023071,4095,0.0,0.0,0.0
10.857437133789062,4095,0.0,0.0,0.0
10.867450475692749,4095,0.0,0.0,0.0
10.877440452575684,4095,0.0,0.0,0.0
10.887437105178833,4095,0.0,0.0,0.0
10.89759349822998,0,0.0,0.0,0.0
10.907245635986328,2668,0.0,0.0,0.0
10.911106824874878,154,0.0,0.0,0.0
10.921836376190186,1788,0.0,0.0,0.0
10.93732213973999,222,0.0,0.0,0.0
10.945354700088501,442,0.0,0.0,0.0
10.95441746711731,202,0.0,0.0,0.0
10.967441320419312,324,0.0,0.0,0.0
10.977472066879272,150,0.0,0.0,0.0
10.987668514251709,0,0.0,0.0,0.0
10.987668514251709,181,0.0,0.0,0.0
10.99865174293518,0,0.0,0.0,0.0
11.010036945343018,157,0.0,0.0,0.0
11.02123236656189,0,0.0,0.0,0.0
11.03123950958252,112,0.0,0.0,0.0
11.04124116897583,0,0.0,0.0,0.0
11.051239490509033,97,0.0,0.0,0.0
11.061239957809448,2371,0.0,0.0,0.0
11.071495056152344,48,0.0,0.0,0.0
11.08238673210144,2727,0.0,0.0,0.0
11.09238862991333,21,0.0,0.0,0.0
11.102386951446533,0,0.0,0.0,0.0
11.115695714950562,95,0.0,0.0,0.0
11.124225616455078,1829,0.0,0.0,0.0
11.136253833770752,75,0.0,0.0,0.0
11.14657711982727,2755,0.0,0.0,0.0
11.153590679168701,82,0.0,0.0,0.0
11.161608695983887,2757,0.0,0.0,0.0
11.170348167419434,70,0.0,0.0,0.0
11.18036437034607,2798,0.0,0.0,0.0
11.190364599227905,66,0.0,0.0,0.0
11.207053661346436,2783,0.0,0.0,0.0
11.208053588867188,48,0.0,0.0,0.0
11.219671487808228,2675,0.0,0.0,0.0
11.229677677154541,47,0.0,0.0,0.0
11.239697933197021,2626,0.0,0.0,0.0
11.256652355194092,80,0.0,0.0,0.0
11.26695728302002,2590,0.0,0.0,0.0
11.268953561782837,69,0.0,0.0,0.0
11.278965950012207,2456,0.0,0.0,0.0
11.288965940475464,65,0.0,0.0,0.0
11.29896593093872,2425,0.0,0.0,0.0
11.308966398239136,23,0.0,0.0,0.0
11.327364444732666,2336,0.0,0.0,0.0
11.337457180023193,0,0.0,0.0,0.0
11.346438646316528,2240,0.0,0.0,0.0
11.352558612823486,0,0.0,0.0,0.0
11.361539602279663,2137,0.0,0.0,0.0
11.371211051940918,0,0.0,0.0,0.0
11.38742709159851,2031,0.0,0.0,0.0
11.397440433502197,0,0.0,0.0,0.0
11.407440423965454,1949,0.0,0.0,0.0
11.417440176010132,0,0.0,0.0,0.0
11.421048641204834,1837,0.0,0.0,0.0
11.431055784225464,2573,0.0,0.0,0.0
11.441059589385986,1799,0.0,0.0,0.0
11.451056957244873,2413,0.0,0.0,0.0
11.461056232452393,1759,0.0,0.0,0.0
11.471220016479492,2484,0.0,0.0,0.0
11.482207536697388,1712,0.0,0.0,0.0
11.492206811904907,2444,0.0,0.0,0.0
11.507441997528076,1731,0.0,0.0,0.0
11.517451524734497,2528,0.0,0.0,0.0
11.51997184753418,1152,0.0,0.0,0.0
11.537307739257812,2513,0.0,0.0,0.0
11.543316125869751,1110,0.0,0.0,0.0
11.557440757751465,2451,0.0,0.0,0.0
11.565450191497803,1061,0.0,0.0,0.0
11.576443433761597,2479,0.0,0.0,0.0
11.586743593215942,1011,0.0,0.0,0.0
11.594781398773193,2342,0.0,0.0,0.0
11.607636451721191,919,0.0,0.0,0.0
11.617803812026978,2239,0.0,0.0,0.0
11.627811670303345,946,0.0,0.0,0.0
11.627811670303345,666,0.0,0.0,0.0
11.639053583145142,1008,0.0,0.0,0.0
11.656755924224854,581,0.0,0.0,0.0
11.667280912399292,759,0.0,0.0,0.0
11.668277502059937,2354,0.0,0.0,0.0
11.678288459777832,736,0.0,0.0,0.0
11.696715831756592,2473,0.0,0.0,0.0
11.707724571228027,2301,0.0,0.0,0.0
11.717720985412598,2260,0.0,0.0,0.0
11.72668170928955,2103,0.0,0.0,0.0
11.737769365310669,2283,0.0,0.0,0.0
11.747310400009155,1968,0.0,0.0,0.0
11.75748324394226,2320,0.0,0.0,0.0
11.762888193130493,1685,0.0,0.0,0.0
11.777410745620728,2480,0.0,0.0,0.0
11.787151575088501,1469,0.0,0.0,0.0
11.788150548934937,2525,0.0,0.0,0.0
11.799420595169067,1367,0.0,0.0,0.0
11.817716836929321,1951,0.0,0.0,0.0
11.826828002929688,1215,0.0,0.0,0.0
11.837818384170532,1330,0.0,0.0,0.0
11.847814321517944,957,0.0,0.0,0.0
11.857762098312378,2525,0.0,0.0,0.0
11.867753267288208,676,0.0,0.0,0.0
11.877767086029053,2291,0.0,0.0,0.0
11.887624263763428,2055,0.0,0.0,0.0
11.897732973098755,2457,0.0,0.0,0.0
11.90773320198059,1707,0.0,0.0,0.0
11.917603731155396,2436,0.0,0.0,0.0
11.927597761154175,1434,0.0,0.0,0.0
11.93747353553772,1658,0.0,0.0,0.0
11.94669485092163,1359,0.0,0.0,0.0
11.953542709350586,0,0.0,0.0,0.0
11.96135687828064,807,0.0,0.0,0.0
11.97244930267334,2790,0.0,0.0,0.0
11.987425088882446,909,0.0,0.0,0.0
11.996697187423706,1094,0.0,0.0,0.0
12.005728006362915,976,0.0,0.0,0.0
12.01742959022522,1821,0.0,0.0,0.0
12.026755571365356,894,0.0,0.0,0.0
12.02777886390686,2459,0.0,0.0,0.0
12.047564268112183,989,0.0,0.0,0.0
12.057611465454102,2789,0.0,0.0,0.0
12.067622900009155,1009,0.0,0.0,0.0
12.077545642852783,3234,0.0,0.0,0.0
12.087491512298584,912,0.0,0.0,0.0
12.088486909866333,4095,0.0,0.0,0.0
12.107624769210815,1365,0.0,0.0,0.0
12.116724014282227,4095,0.0,0.0,0.0
12.127585887908936,1333,0.0,0.0,0.0
12.137468099594116,4095,0.0,0.0,0.0
12.14675784111023,1405,0.0,0.0,0.0
12.157767534255981,4095,0.0,0.0,0.0
12.167442083358765,1552,0.0,0.0,0.0
12.177609205245972,4095,0.0,0.0,0.0
12.18747615814209,1612,0.0,0.0,0.0
12.197539329528809,4095,0.0,0.0,0.0
12.204390287399292,1657,0.0,0.0,0.0
12.216691732406616,4095,0.0,0.0,0.0
12.227575540542603,1978,0.0,0.0,0.0
12.237482070922852,4095,0.0,0.0,0.0
12.247543811798096,2126,0.0,0.0,0.0
12.257637739181519,4095,0.0,0.0,0.0
12.267446517944336,2238,0.0,0.0,0.0
12.274405717849731,4095,0.0,0.0,0.0
12.287484407424927,2303,0.0,0.0,0.0
12.296759128570557,4095,0.0,0.0,0.0
12.307552576065063,1264,0.0,0.0,0.0
12.316761016845703,4095,0.0,0.0,0.0
12.317759275436401,0,0.0,0.0,0.0
12.33703327178955,4095,0.0,0.0,0.0
12.345043182373047,0,0.0,0.0,0.0
12.357596635818481,4095,0.0,0.0,0.0
12.359428882598877,0,0.0,0.0,0.0
12.376838445663452,4095,0.0,0.0,0.0
12.386122941970825,0,0.0,0.0,0.0
12.397940397262573,4095,0.0,0.0,0.0
12.406559467315674,0,0.0,0.0,0.0
12.41516637802124,4095,0.0,0.0,0.0
12.422863245010376,1914,0.0,0.0,0.0
12.436827898025513,4095,0.0,0.0,0.0
12.44769024848938,4095,0.0,0.0,0.0
12.457722425460815,4095,0.0,0.0,0.0
12.466728687286377,4095,0.0,0.0,0.0
12.476710557937622,4095,0.0,0.0,0.0
12.487560272216797,4095,0.0,0.0,0.0
12.497730731964111,4095,0.0,0.0,0.0
12.507279634475708,4095,0.0,0.0,0.0
12.517704725265503,4095,0.0,0.0,0.0
12.526808977127075,4095,0.0,0.0,0.0
12.537566900253296,4095,0.0,0.0,0.0
12.547571182250977,4095,0.0,0.0,0.0
12.554473400115967,4095,0.0,0.0,0.0
12.567525386810303,4095,0.0,0.0,0.0
12.576700687408447,4095,0.0,0.0,0.0
12.586479902267456,4095,0.0,0.0,0.0
12.597478866577148,4095,0.0,0.0,0.0
12.605874061584473,4095,0.0,0.0,0.0
12.614411115646362,4095,0.0,0.0,0.0
12.627747535705566,4095,0.0,0.0,0.0
12.636900663375854,4095,0.0,0.0,0.0
12.647757053375244,4095,0.0,0.0,0.0
12.657696008682251,4095,0.0,0.0,0.0
12.667388916015625,4095,0.0,0.0,0.0
12.677826881408691,4095,0.0,0.0,0.0
12.687625646591187,4095,0.0,0.0,0.0
12.697227716445923,4095,0.0,0.0,0.0
12.707648754119873,4095,0.0,0.0,0.0
12.717769145965576,4095,0.0,0.0,0.0
12.727988958358765,4095,0.0,0.0,0.0
12.736746549606323,4095,0.0,0.0,0.0
12.74422025680542,4095,0.0,0.0,0.0
12.75764775276184,4095,0.0,0.0,0.0
12.767141819000244,4095,0.0,0.0,0.0
12.777780771255493,4095,0.0,0.0,0.0
12.78759503364563,4095,0.0,0.0,0.0
12.798387289047241,4095,0.0,0.0,0.0
12.806591033935547,4095,0.0,0.0,0.0
12.815324544906616,2287,0.0,0.0,0.0
12.827675342559814,4095,0.0,0.0,0.0
12.837035655975342,831,0.0,0.0,0.0
12.843891620635986,4095,0.0,0.0,0.0
12.857768774032593,442,0.0,0.0,0.0
12.867897987365723,4095,0.0,0.0,0.0
12.877803564071655,108,0.0,0.0,0.0
12.886988878250122,4095,0.0,0.0,0.0
12.896714925765991,494,0.0,0.0,0.0
12.906861066818237,4095,0.0,0.0,0.0
12.912965297698975,1586,0.0,0.0,0.0
12.92678952217102,4095,0.0,0.0,0.0
12.93704628944397,4095,0.0,0.0,0.0
12.94681191444397,4095,0.0,0.0,0.0
12.958062410354614,4095,0.0,0.0,0.0
12.966723203659058,4095,0.0,0.0,0.0
12.97771692276001,4095,0.0,0.0,0.0
12.98726749420166,4095,0.0,0.0,0.0
12.997438669204712,4095,0.0,0.0,0.0
13.006767511367798,4095,0.0,0.0,0.0
13.017348527908325,4095,0.0,0.0,0.0
13.026774883270264,1686,0.0,0.0,0.0
13.037278890609741,4095,0.0,0.0,0.0
13.047580003738403,4095,0.0,0.0,0.0
13.05545425415039,4095,0.0,0.0,0.0
13.067466259002686,4095,0.0,0.0,0.0
13.076796293258667,4095,0.0,0.0,0.0
13.087098121643066,4095,0.0,0.0,0.0
13.097171306610107,4095,0.0,0.0,0.0
13.107739448547363,4095,0.0,0.0,0.0
13.113483428955078,4095,0.0,0.0,0.0
13.12692141532898,4095,0.0,0.0,0.0
13.137135028839111,4095,0.0,0.0,0.0
13.143247127532959,4095,0.0,0.0,0.0
13.156798362731934,1175,0.0,0.0,0.0
13.166220426559448,4095,0.0,0.0,0.0
13.173994541168213,4095,0.0,0.0,0.0
13.187546968460083,4095,0.0,0.0,0.0
13.196954250335693,4095,0.0,0.0,0.0
13.206526279449463,4095,0.0,0.0,0.0
13.216514348983765,4095,0.0,0.0,0.0
13.227197885513306,4095,0.0,0.0,0.0
13.237364053726196,4095,0.0,0.0,0.0
13.243968725204468,4095,0.0,0.0,0.0
13.257538318634033,4095,0.0,0.0,0.0
13.26605749130249,4095,0.0,0.0,0.0
13.274892091751099,4095,0.0,0.0,0.0
13.287269353866577,4095,0.0,0.0,0.0
13.296669006347656,4095,0.0,0.0,0.0
13.307730913162231,4095,0.0,0.0,0.0
13.317867517471313,4095,0.0,0.0,0.0
13.327345371246338,4095,0.0,0.0,0.0
13.337345838546753,4095,0.0,0.0,0.0
13.343771934509277,4095,0.0,0.0,0.0
13.35718560218811,4095,0.0,0.0,0.0
13.367790937423706,4095,0.0,0.0,0.0
13.374732971191406,4095,0.0,0.0,0.0
13.38778281211853,4095,0.0,0.0,0.0
13.397717714309692,4095,0.0,0.0,0.0
13.406903982162476,4095,0.0,0.0,0.0
13.418960332870483,4095,0.0,0.0,0.0
13.42724347114563,4095,0.0,0.0,0.0
13.43748164176941,4095,0.0,0.0,0.0
13.446778297424316,2907,0.0,0.0,0.0
13.456994771957397,4095,0.0,0.0,0.0
13.467762470245361,2704,0.0,0.0,0.0
13.474697351455688,4095,0.0,0.0,0.0
13.487656116485596,2358,0.0,0.0,0.0
13.497493743896484,4095,0.0,0.0,0.0
13.505300283432007,2181,0.0,0.0,0.0
13.517770767211914,4095,0.0,0.0,0.0
13.526915788650513,2371,0.0,0.0,0.0
13.536632061004639,4095,0.0,0.0,0.0
13.546801090240479,2287,0.0,0.0,0.0
13.556703567504883,4095,0.0,0.0,0.0
13.56775689125061,4095,0.0,0.0,0.0
13.574026584625244,4095,0.0,0.0,0.0
13.587729454040527,4095,0.0,0.0,0.0
13.596078157424927,4095,0.0,0.0,0.0
13.607757568359375,4095,0.0,0.0,0.0
13.617801904678345,4095,0.0,0.0,0.0
13.62674856185913,4095,0.0,0.0,0.0
13.637511253356934,4095,0.0,0.0,0.0
13.644341468811035,4095,0.0,0.0,0.0
13.65674114227295,4095,0.0,0.0,0.0
13.665198564529419,4095,0.0,0.0,0.0
13.677533864974976,4095,0.0,0.0,0.0
13.687143325805664,4095,0.0,0.0,0.0
13.696824073791504,4095,0.0,0.0,0.0
13.707779884338379,4095,0.0,0.0,0.0
13.716681718826294,4095,0.0,0.0,0.0
13.727683305740356,4095,0.0,0.0,0.0
13.737288236618042,4095,0.0,0.0,0.0
13.741908311843872,4095,0.0,0.0,0.0
13.757622003555298,4095,0.0,0.0,0.0
13.76675295829773,4095,0.0,0.0,0.0
13.772922039031982,4095,0.0,0.0,0.0
13.786806106567383,4095,0.0,0.0,0.0
13.796836137771606,4095,0.0,0.0,0.0
13.806308269500732,4095,0.0,0.0,0.0
13.81298017501831,4095,0.0,0.0,0.0
13.827506065368652,4095,0.0,0.0,0.0
13.837186574935913,4095,0.0,0.0,0.0
13.847346782684326,4095,0.0,0.0,0.0
13.856952905654907,4095,0.0,0.0,0.0
13.866640567779541,4095,0.0,0.0,0.0
13.876626968383789,4095,0.0,0.0,0.0
13.886963367462158,4095,0.0,0.0,0.0
13.896654605865479,4095,0.0,0.0,0.0
13.906636476516724,4095,0.0,0.0,0.0
13.917661666870117,4095,0.0,0.0,0.0
13.927010774612427,4095,0.0,0.0,0.0
13.937060832977295,4095,0.0,0.0,0.0
13.942349195480347,4095,0.0,0.0,0.0
13.956717491149902,4095,0.0,0.0,0.0
13.96773076057434,4095,0.0,0.0,0.0
13.972731351852417,4095,0.0,0.0,0.0
13.987502098083496,4095,0.0,0.0,0.0
13.995144844055176,4095,0.0,0.0,0.0
14.007742404937744,4095,0.0,0.0,0.0
14.016758680343628,4095,0.0,0.0,0.0
14.026651382446289,4095,0.0,0.0,0.0
14.037243127822876,4095,0.0,0.0,0.0
14.044318437576294,4095,0.0,0.0,0.0
14.057219743728638,4095,0.0,0.0,0.0
14.066661357879639,4095,0.0,0.0,0.0
14.076659679412842,4095,0.0,0.0,0.0
14.087474346160889,4095,0.0,0.0,0.0
14.097776412963867,4095,0.0,0.0,0.0
14.106602907180786,4095,0.0,0.0,0.0
14.116780281066895,4095,0.0,0.0,0.0
14.1266348361969,4095,0.0,0.0,0.0
14.137560606002808,4095,0.0,0.0,0.0
14.141910076141357,4095,0.0,0.0,0.0
14.157459259033203,4095,0.0,0.0,0.0
14.165929794311523,4095,0.0,0.0,0.0
14.171936273574829,4095,0.0,0.0,0.0
14.186791181564331,4095,0.0,0.0,0.0
14.196894407272339,4095,0.0,0.0,0.0
14.203714370727539,4095,0.0,0.0,0.0
14.216673612594604,4095,0.0,0.0,0.0
14.227417707443237,4095,0.0,0.0,0.0
14.236484050750732,4095,0.0,0.0,0.0
14.244462013244629,4095,0.0,0.0,0.0
14.25757908821106,4095,0.0,0.0,0.0
14.266518354415894,4095,0.0,0.0,0.0
14.276451349258423,4095,0.0,0.0,0.0
14.286287546157837,4095,0.0,0.0,0.0
14.297767400741577,4095,0.0,0.0,0.0
14.306684732437134,4095,0.0,0.0,0.0
14.316621541976929,4095,0.0,0.0,0.0
14.326904535293579,4095,0.0,0.0,0.0
14.335835456848145,4095,0.0,0.0,0.0
14.346747875213623,4095,0.0,0.0,0.0
14.357768297195435,4095,0.0,0.0,0.0
14.367077350616455,4095,0.0,0.0,0.0
14.372430324554443,4095,0.0,0.0,0.0
14.38654899597168,4095,0.0,0.0,0.0
14.397961616516113,4095,0.0,0.0,0.0
14.402807712554932,4095,0.0,0.0,0.0
14.417424201965332,4095,0.0,0.0,0.0
14.427692890167236,4095,0.0,0.0,0.0
14.43778681755066,4095,0.0,0.0,0.0
14.446771383285522,4095,0.0,0.0,0.0
14.456716537475586,4095,0.0,0.0,0.0
14.467868566513062,4095,0.0,0.0,0.0
14.476745367050171,4095,0.0,0.0,0.0
14.487544775009155,4095,0.0,0.0,0.0
14.497767210006714,4095,0.0,0.0,0.0
14.50683069229126,4095,0.0,0.0,0.0
14.517086267471313,4095,0.0,0.0,0.0
14.527808427810669,4095,0.0,0.0,0.0
14.533392429351807,4095,0.0,0.0,0.0
14.546728134155273,4095,0.0,0.0,0.0
14.557534456253052,4095,0.0,0.0,0.0
14.567806959152222,4095,0.0,0.0,0.0
14.576797485351562,4095,0.0,0.0,0.0
14.587032556533813,4095,0.0,0.0,0.0
14.594679117202759,4095,0.0,0.0,0.0
14.6076500415802,4095,0.0,0.0,0.0
14.616746664047241,4095,0.0,0.0,0.0
14.62789249420166,4095,0.0,0.0,0.0
14.636796236038208,4095,0.0,0.0,0.0
14.646587371826172,4095,0.0,0.0,0.0
14.657606840133667,4095,0.0,0.0,0.0
14.667734861373901,4095,0.0,0.0,0.0
14.67720079421997,4095,0.0,0.0,0.0
14.685869216918945,4095,0.0,0.0,0.0
14.697276592254639,4095,0.0,0.0,0.0
14.706878900527954,4095,0.0,0.0,0.0
14.716492891311646,4095,0.0,0.0,0.0
14.726945638656616,4095,0.0,0.0,0.0
14.736888885498047,4095,0.0,0.0,0.0
14.747311115264893,4095,0.0,0.0,0.0
14.757614135742188,4095,0.0,0.0,0.0
14.767803430557251,4095,0.0,0.0,0.0
14.777042388916016,4095,0.0,0.0,0.0
14.786627531051636,4095,0.0,0.0,0.0
14.796868324279785,4095,0.0,0.0,0.0
14.80781078338623,4095,0.0,0.0,0.0
14.817774534225464,4095,0.0,0.0,0.0
14.82672667503357,4095,0.0,0.0,0.0
14.836774349212646,4095,0.0,0.0,0.0
14.846955060958862,4095,0.0,0.0,0.0
14.857686996459961,4095,0.0,0.0,0.0
14.866750955581665,4095,0.0,0.0,0.0
14.877307176589966,4095,0.0,0.0,0.0
14.887609958648682,4095,0.0,0.0,0.0
14.89307165145874,4095,0.0,0.0,0.0
14.907446146011353,4095,0.0,0.0,0.0
14.917031049728394,4095,0.0,0.0,0.0
14.92683720588684,4095,0.0,0.0,0.0
14.937811613082886,4095,0.0,0.0,0.0
14.946677923202515,4095,0.0,0.0,0.0
14.954436302185059,4095,0.0,0.0,0.0
14.966875314712524,4095,0.0,0.0,0.0
14.97770881652832,4095,0.0,0.0,0.0
14.978455305099487,4095,0.0,0.0,0.0
14.996933460235596,4095,0.0,0.0,0.0
15.006819725036621,4095,0.0,0.0,0.0
15.01644229888916,4095,0.0,0.0,0.0
15.026522397994995,4095,0.0,0.0,0.0
15.036664247512817,4095,0.0,0.0,0.0
15.046507835388184,4095,0.0,0.0,0.0
15.056501388549805,4095,0.0,0.0,0.0
15.061842441558838,4095,0.0,0.0,0.0
15.076969146728516,4095,0.0,0.0,0.0
15.08776593208313,4095,0.0,0.0,0.0
15.096973419189453,4095,0.0,0.0,0.0
15.106874465942383,4095,0.0,0.0,0.0
15.116537809371948,4095,0.0,0.0,0.0
15.126615047454834,4095,0.0,0.0,0.0
15.136474132537842,4095,0.0,0.0,0.0
15.14670729637146,4095,0.0,0.0,0.0
15.156591653823853,4095,0.0,0.0,0.0
15.161840200424194,4095,0.0,0.0,0.0
15.176929235458374,4095,0.0,0.0,0.0
15.186634063720703,4095,0.0,0.0,0.0
15.196586847305298,4095,0.0,0.0,0.0
15.206832647323608,4095,0.0,0.0,0.0
15.217394590377808,4095,0.0,0.0,0.0
15.226818799972534,4095,0.0,0.0,0.0
15.236588478088379,2445,0.0,0.0,0.0
15.247902393341064,4095,0.0,0.0,0.0
15.254053592681885,4095,0.0,0.0,0.0
15.267749309539795,4095,0.0,0.0,0.0
15.275896549224854,4095,0.0,0.0,0.0
15.285728216171265,4095,0.0,0.0,0.0
15.297571659088135,4095,0.0,0.0,0.0
15.306510210037231,4095,0.0,0.0,0.0
15.316736936569214,4095,0.0,0.0,0.0
15.326788663864136,4095,0.0,0.0,0.0
15.33736538887024,4095,0.0,0.0,0.0
15.347749471664429,4095,0.0,0.0,0.0
15.356677532196045,4095,0.0,0.0,0.0
15.367833614349365,4095,0.0,0.0,0.0
15.376601219177246,4095,0.0,0.0,0.0
15.387332916259766,4095,0.0,0.0,0.0
15.396827220916748,4095,0.0,0.0,0.0
15.406442880630493,4095,0.0,0.0,0.0
15.41663646697998,4095,0.0,0.0,0.0
15.422542095184326,4095,0.0,0.0,0.0
15.436584711074829,4095,0.0,0.0,0.0
15.446599245071411,2651,0.0,0.0,0.0
15.45665717124939,4095,0.0,0.0,0.0
15.466496467590332,4095,0.0,0.0,0.0
15.477370977401733,4095,0.0,0.0,0.0
15.487373352050781,4095,0.0,0.0,0.0
15.493716478347778,4095,0.0,0.0,0.0
15.507088661193848,4095,0.0,0.0,0.0
15.51781415939331,4095,0.0,0.0,0.0
15.526857376098633,4095,0.0,0.0,0.0
15.537509679794312,4095,0.0,0.0,0.0
15.547111988067627,4095,0.0,0.0,0.0
15.557494878768921,4095,0.0,0.0,0.0
15.561696767807007,4095,0.0,0.0,0.0
15.576947689056396,4095,0.0,0.0,0.0
15.586779594421387,4095,0.0,0.0,0.0
15.59456181526184,4095,0.0,0.0,0.0
15.607158660888672,4095,0.0,0.0,0.0
15.616193771362305,4095,0.0,0.0,0.0
15.622103214263916,4095,0.0,0.0,0.0
15.63690996170044,4095,0.0,0.0,0.0
15.646735191345215,4095,0.0,0.0,0.0
15.653178453445435,4095,0.0,0.0,0.0
15.666628122329712,4095,0.0,0.0,0.0
15.676578044891357,4095,0.0,0.0,0.0
15.686657428741455,4095,0.0,0.0,0.0
15.692054033279419,4095,0.0,0.0,0.0
15.706597089767456,4095,0.0,0.0,0.0
15.716617107391357,4095,0.0,0.0,0.0
15.724069833755493,4095,0.0,0.0,0.0
15.73647403717041,4095,0.0,0.0,0.0
15.747465372085571,4095,0.0,0.0,0.0
15.756837129592896,4095,0.0,0.0,0.0
15.766788244247437,4095,0.0,0.0,0.0
15.777377843856812,4095,0.0,0.0,0.0
15.787313222885132,4095,0.0,0.0,0.0
15.796669244766235,4095,0.0,0.0,0.0
15.80744457244873,4095,0.0,0.0,0.0
15.816674947738647,4095,0.0,0.0,0.0
15.823471784591675,4095,0.0,0.0,0.0
15.837183475494385,4095,0.0,0.0,0.0
15.84683895111084,4095,0.0,0.0,0.0
15.856559753417969,4095,0.0,0.0,0.0
15.867406606674194,4095,0.0,0.0,0.0
15.876847505569458,4095,0.0,0.0,0.0
15.887562036514282,4095,0.0,0.0,0.0
15.897298574447632,4095,0.0,0.0,0.0
15.90667724609375,4095,0.0,0.0,0.0
15.916687965393066,4095,0.0,0.0,0.0
15.923945426940918,4095,0.0,0.0,0.0
15.93660569190979,4095,0.0,0.0,0.0
15.94670820236206,4095,0.0,0.0,0.0
15.957327127456665,4095,0.0,0.0,0.0
15.96717381477356,4095,0.0,0.0,0.0
15.976788997650146,4095,0.0,0.0,0.0
15.986164569854736,4095,0.0,0.0,0.0
15.996673822402954,4095,0.0,0.0,0.0
16.007686614990234,4095,0.0,0.0,0.0
16.016656637191772,4095,0.0,0.0,0.0
16.0273380279541,4095,0.0,0.0,0.0
16.03658103942871,4095,0.0,0.0,0.0
16.037577390670776,4095,0.0,0.0,0.0
16.056637287139893,4095,0.0,0.0,0.0
16.066679000854492,1206,0.0,0.0,0.0
16.076554536819458,4095,0.0,0.0,0.0
16.086669445037842,4095,0.0,0.0,0.0
16.091962099075317,4095,0.0,0.0,0.0
16.106802463531494,4095,0.0,0.0,0.0
16.116681814193726,4095,0.0,0.0,0.0
16.12668013572693,4095,0.0,0.0,0.0
16.137674808502197,4095,0.0,0.0,0.0
16.146738052368164,4095,0.0,0.0,0.0
16.156774282455444,4095,0.0,0.0,0.0
16.16601061820984,4095,0.0,0.0,0.0
16.1766619682312,4095,0.0,0.0,0.0
16.186628341674805,4095,0.0,0.0,0.0
16.19663977622986,4095,0.0,0.0,0.0
16.206775903701782,4095,0.0,0.0,0.0
16.217158555984497,4095,0.0,0.0,0.0
16.220699071884155,4095,0.0,0.0,0.0
16.237641096115112,4095,0.0,0.0,0.0
16.24664616584778,4095,0.0,0.0,0.0
16.25665044784546,4095,0.0,0.0,0.0
16.266854286193848,4095,0.0,0.0,0.0
16.274451971054077,4095,0.0,0.0,0.0
16.28660821914673,4095,0.0,0.0,0.0
16.296611070632935,4095,0.0,0.0,0.0
16.3076434135437,4095,0.0,0.0,0.0
16.318108081817627,4095,0.0,0.0,0.0
16.327362060546875,4095,0.0,0.0,0.0
16.336602926254272,4095,0.0,0.0,0.0
16.346877098083496,4095,0.0,0.0,0.0
16.35782504081726,4095,0.0,0.0,0.0
16.367347240447998,4095,0.0,0.0,0.0
16.37637948989868,4095,0.0,0.0,0.0
16.386743545532227,4095,0.0,0.0,0.0
16.39782452583313,4095,0.0,0.0,0.0
16.407325744628906,4095,0.0,0.0,0.0
16.417842149734497,4095,0.0,0.0,0.0
16.427361726760864,4095,0.0,0.0,0.0
16.43707513809204,4095,0.0,0.0,0.0
16.447003841400146,4095,0.0,0.0,0.0
16.456384897232056,4095,0.0,0.0,0.0
16.46654486656189,4095,0.0,0.0,0.0
16.47654676437378,4095,0.0,0.0,0.0
16.481591939926147,4095,0.0,0.0,0.0
16.49694037437439,4095,0.0,0.0,0.0
16.506606340408325,4095,0.0,0.0,0.0
16.516541004180908,4095,0.0,0.0,0.0
16.52669644355774,4095,0.0,0.0,0.0
16.536592960357666,4095,0.0,0.0,0.0
16.54714298248291,4095,0.0,0.0,0.0
16.55733346939087,4095,0.0,0.0,0.0
16.56656241416931,4095,0.0,0.0,0.0
16.577268362045288,4095,0.0,0.0,0.0
16.586466550827026,4095,0.0,0.0,0.0
16.595154285430908,4095,0.0,0.0,0.0
16.60719585418701,4095,0.0,0.0,0.0
16.617000102996826,4095,0.0,0.0,0.0
16.62716770172119,4095,0.0,0.0,0.0
16.63708472251892,4095,0.0,0.0,0.0
16.647228717803955,4095,0.0,0.0,0.0
16.65722918510437,4095,0.0,0.0,0.0
16.666459321975708,4095,0.0,0.0,0.0
16.676533937454224,4095,0.0,0.0,0.0
16.68664860725403,4095,0.0,0.0,0.0
16.697317123413086,4095,0.0,0.0,0.0
16.706725358963013,4095,0.0,0.0,0.0
16.717104196548462,4095,0.0,0.0,0.0
16.72582483291626,4095,0.0,0.0,0.0
16.73663330078125,4095,0.0,0.0,0.0
16.74635410308838,4095,0.0,0.0,0.0
16.756949424743652,4095,0.0,0.0,0.0
16.766627550125122,4095,0.0,0.0,0.0
16.777374029159546,4095,0.0,0.0,0.0
16.787519693374634,4095,0.0,0.0,0.0
16.796066761016846,4095,0.0,0.0,0.0
16.806705474853516,4095,0.0,0.0,0.0
16.817415237426758,4095,0.0,0.0,0.0
16.82722020149231,4095,0.0,0.0,0.0
16.83678650856018,4095,0.0,0.0,0.0
16.845547437667847,4095,0.0,0.0,0.0
16.856935501098633,4095,0.0,0.0,0.0
16.86573553085327,4095,0.0,0.0,0.0
16.876244068145752,4095,0.0,0.0,0.0
16.886529207229614,4095,0.0,0.0,0.0
16.896218299865723,4095,0.0,0.0,0.0
16.906596183776855,4095,0.0,0.0,0.0
16.915832996368408,4095,0.0,0.0,0.0
16.925770044326782,4095,0.0,0.0,0.0
16.93543529510498,4095,0.0,0.0,0.0
16.945427894592285,4095,0.0,0.0,0.0
16.95582413673401,4095,0.0,0.0,0.0
16.96610713005066,4095,0.0,0.0,0.0
16.975740432739258,4095,0.0,0.0,0.0
16.986329555511475,4095,0.0,0.0,0.0
16.996666431427002,4095,0.0,0.0,0.0
17.00582504272461,4095,0.0,0.0,0.0
17.016435146331787,4095,0.0,0.0,0.0
17.026196002960205,4095,0.0,0.0,0.0
17.03569746017456,4095,0.0,0.0,0.0
17.0457763671875,4095,0.0,0.0,0.0
17.056902647018433,3984,0.0,0.0,0.0
17.06643056869507,4095,0.0,0.0,0.0
17.077559232711792,3945,0.0,0.0,0.0
17.089072704315186,4095,0.0,0.0,0.0
17.096646785736084,3728,0.0,0.0,0.0
17.106199979782104,4095,0.0,0.0,0.0
17.11575984954834,3664,0.0,0.0,0.0
17.126194715499878,4095,0.0,0.0,0.0
17.133821964263916,3593,0.0,0.0,0.0
17.145874977111816,4095,0.0,0.0,0.0
17.15606164932251,2994,0.0,0.0,0.0
17.16462469100952,4095,0.0,0.0,0.0
17.176325798034668,2701,0.0,0.0,0.0
17.187740564346313,4095,0.0,0.0,0.0
17.195889711380005,2389,0.0,0.0,0.0
17.206231594085693,4095,0.0,0.0,0.0
17.216556549072266,2103,0.0,0.0,0.0
17.226335048675537,4095,0.0,0.0,0.0
17.236334085464478,1437,0.0,0.0,0.0
17.246263027191162,4095,0.0,0.0,0.0
17.25779628753662,1901,0.0,0.0,0.0
17.266654014587402,4095,0.0,0.0,0.0
17.276294946670532,1762,0.0,0.0,0.0
17.286260843276978,4095,0.0,0.0,0.0
17.296581268310547,1490,0.0,0.0,0.0
17.306244134902954,4095,0.0,0.0,0.0
17.31624960899353,1196,0.0,0.0,0.0
17.3268723487854,4095,0.0,0.0,0.0
17.33612298965454,819,0.0,0.0,0.0
17.34598159790039,4095,0.0,0.0,0.0
17.356501579284668,274,0.0,0.0,0.0
17.365683794021606,4095,0.0,0.0,0.0
17.37623167037964,94,0.0,0.0,0.0
17.386577129364014,4095,0.0,0.0,0.0
17.396337032318115,0,0.0,0.0,0.0
17.406291484832764,4095,0.0,0.0,0.0
17.416456699371338,0,0.0,0.0,0.0
17.426333904266357,4095,0.0,0.0,0.0
17.436650276184082,0,0.0,0.0,0.0
17.44635009765625,4095,0.0,0.0,0.0
17.456369876861572,2174,0.0,0.0,0.0
17.466585636138916,4095,0.0,0.0,0.0
17.475894689559937,29,0.0,0.0,0.0
17.486807584762573,4095,0.0,0.0,0.0
17.496355056762695,963,0.0,0.0,0.0
17.50663471221924,4095,0.0,0.0,0.0
17.515863180160522,1159,0.0,0.0,0.0
17.52527165412903,4095,0.0,0.0,0.0
17.536452770233154,1440,0.0,0.0,0.0
17.547863960266113,4095,0.0,0.0,0.0
17.556788682937622,1509,0.0,0.0,0.0
17.566455364227295,4095,0.0,0.0,0.0
17.576343774795532,1248,0.0,0.0,0.0
17.58683133125305,4095,0.0,0.0,0.0
17.596428871154785,1758,0.0,0.0,0.0
17.605950355529785,4095,0.0,0.0,0.0
17.616358280181885,706,0.0,0.0,0.0
17.62687063217163,4095,0.0,0.0,0.0
17.63663363456726,1518,0.0,0.0,0.0
17.64657711982727,4095,0.0,0.0,0.0
17.65638279914856,1386,0.0,0.0,0.0
17.6666316986084,4095,0.0,0.0,0.0
17.676661252975464,1301,0.0,0.0,0.0
17.686540842056274,4095,0.0,0.0,0.0
17.696086168289185,1328,0.0,0.0,0.0
17.706470251083374,4095,0.0,0.0,0.0
17.715643405914307,1234,0.0,0.0,0.0
17.726344347000122,4095,0.0,0.0,0.0
17.736284494400024,965,0.0,0.0,0.0
17.746325969696045,4095,0.0,0.0,0.0
17.75643801689148,1699,0.0,0.0,0.0
17.765132188796997,4095,0.0,0.0,0.0
17.776302576065063,1504,0.0,0.0,0.0
17.786078929901123,4095,0.0,0.0,0.0
17.79645609855652,1086,0.0,0.0,0.0
17.806443214416504,4095,0.0,0.0,0.0
17.816489219665527,1669,0.0,0.0,0.0
17.8264319896698,4095,0.0,0.0,0.0
17.836344480514526,1671,0.0,0.0,0.0
17.846367120742798,4095,0.0,0.0,0.0
17.856635808944702,1885,0.0,0.0,0.0
17.866347551345825,4095,0.0,0.0,0.0
17.87648916244507,1721,0.0,0.0,0.0
17.88655138015747,4095,0.0,0.0,0.0
17.896074771881104,1725,0.0,0.0,0.0
17.906461715698242,4095,0.0,0.0,0.0
17.91643261909485,1515,0.0,0.0,0.0
17.926409244537354,4095,0.0,0.0,0.0
17.936342000961304,1645,0.0,0.0,0.0
17.945676803588867,4095,0.0,0.0,0.0
17.956469297409058,1620,0.0,0.0,0.0
17.966472625732422,4095,0.0,0.0,0.0
17.975740909576416,1564,0.0,0.0,0.0
17.986406087875366,4095,0.0,0.0,0.0
17.996534824371338,1566,0.0,0.0,0.0
18.006348371505737,4095,0.0,0.0,0.0
18.016472816467285,1532,0.0,0.0,0.0
18.026302337646484,4095,0.0,0.0,0.0
18.03639578819275,1749,0.0,0.0,0.0
18.046343088150024,4095,0.0,0.0,0.0
18.056392431259155,4095,0.0,0.0,0.0
18.066285133361816,4095,0.0,0.0,0.0
18.076359510421753,4095,0.0,0.0,0.0
18.086050033569336,4095,0.0,0.0,0.0
18.09634280204773,4095,0.0,0.0,0.0
18.106370210647583,4095,0.0,0.0,0.0
18.116498231887817,4095,0.0,0.0,0.0
18.126481294631958,4095,0.0,0.0,0.0
18.135911464691162,4095,0.0,0.0,0.0
18.14581799507141,4095,0.0,0.0,0.0
18.156482696533203,4095,0.0,0.0,0.0
18.166473388671875,4095,0.0,0.0,0.0
18.176347017288208,4095,0.0,0.0,0.0
18.186296939849854,4095,0.0,0.0,0.0
18.19634246826172,4095,0.0,0.0,0.0
18.206316709518433,4095,0.0,0.0,0.0
18.216334581375122,4095,0.0,0.0,0.0
18.226418018341064,4095,0.0,0.0,0.0
18.236517429351807,4095,0.0,0.0,0.0
18.246304988861084,4095,0.0,0.0,0.0
18.25641679763794,4095,0.0,0.0,0.0
18.266467571258545,4095,0.0,0.0,0.0
18.27601385116577,4095,0.0,0.0,0.0
18.28606605529785,4095,0.0,0.0,0.0
18.296499729156494,4095,0.0,0.0,0.0
18.306469917297363,4095,0.0,0.0,0.0
18.316505670547485,4095,0.0,0.0,0.0
18.32629942893982,4095,0.0,0.0,0.0
18.336318492889404,4095,0.0,0.0,0.0
18.34537625312805,4095,0.0,0.0,0.0
18.35657811164856,4095,0.0,0.0,0.0
18.366484880447388,4095,0.0,0.0,0.0
18.37646198272705,4095,0.0,0.0,0.0
18.386467933654785,4095,0.0,0.0,0.0
18.395697832107544,4095,0.0,0.0,0.0
18.40589690208435,4095,0.0,0.0,0.0
18.416502952575684,4095,0.0,0.0,0.0
18.42630672454834,4095,0.0,0.0,0.0
18.436480283737183,4095,0.0,0.0,0.0
18.446528673171997,4095,0.0,0.0,0.0
18.4564049243927,4095,0.0,0.0,0.0
18.46636128425598,4095,0.0,0.0,0.0
18.476465702056885,4095,0.0,0.0,0.0
18.485593557357788,4095,0.0,0.0,0.0
18.496477127075195,4095,0.0,0.0,0.0
18.506431341171265,4095,0.0,0.0,0.0
18.516551733016968,4095,0.0,0.0,0.0
18.526313066482544,4095,0.0,0.0,0.0
18.53631591796875,4095,0.0,0.0,0.0
18.54537320137024,4095,0.0,0.0,0.0
18.556487321853638,4095,0.0,0.0,0.0
18.565722942352295,4095,0.0,0.0,0.0
18.576576232910156,4095,0.0,0.0,0.0
18.586397886276245,4095,0.0,0.0,0.0
18.59646248817444,4095,0.0,0.0,0.0
18.60645866394043,4095,0.0,0.0,0.0
18.616429328918457,4095,0.0,0.0,0.0
18.62568187713623,4095,0.0,0.0,0.0
18.636385202407837,4095,0.0,0.0,0.0
18.646516799926758,4095,0.0,0.0,0.0
18.656534671783447,4095,0.0,0.0,0.0
18.66664481163025,4095,0.0,0.0,0.0
18.67515277862549,4095,0.0,0.0,0.0
18.686402559280396,4095,0.0,0.0,0.0
18.696532011032104,4095,0.0,0.0,0.0
18.706007957458496,4095,0.0,0.0,0.0
18.716521978378296,4095,0.0,0.0,0.0
18.72631072998047,4095,0.0,0.0,0.0
18.736475944519043,4095,0.0,0.0,0.0
18.74629521369934,4051,0.0,0.0,0.0
18.75649094581604,4095,0.0,0.0,0.0
18.766507625579834,4046,0.0,0.0,0.0
18.776511907577515,4095,0.0,0.0,0.0
18.7861168384552,4095,0.0,0.0,0.0
18.7956805229187,4095,0.0,0.0,0.0
18.80633234977722,3728,0.0,0.0,0.0
18.816311836242676,4095,0.0,0.0,0.0
18.826300382614136,3582,0.0,0.0,0.0
18.83663249015808,4095,0.0,0.0,0.0
18.84628987312317,2911,0.0,0.0,0.0
18.856526613235474,4095,0.0,0.0,0.0
18.866446256637573,2991,0.0,0.0,0.0
18.87574791908264,4095,0.0,0.0,0.0
18.886420488357544,2756,0.0,0.0,0.0
18.896393537521362,4095,0.0,0.0,0.0
18.90653347969055,2797,0.0,0.0,0.0
18.916414737701416,4095,0.0,0.0,0.0
18.926459550857544,2657,0.0,0.0,0.0
18.936453104019165,4095,0.0,0.0,0.0
18.94650673866272,2206,0.0,0.0,0.0
18.956420421600342,4095,0.0,0.0,0.0
18.966440439224243,2491,0.0,0.0,0.0
18.976452827453613,4095,0.0,0.0,0.0
18.98641276359558,2354,0.0,0.0,0.0
18.996580123901367,4095,0.0,0.0,0.0
19.006327629089355,1594,0.0,0.0,0.0
19.016447067260742,4095,0.0,0.0,0.0
19.026307344436646,1616,0.0,0.0,0.0
19.03632092475891,4095,0.0,0.0,0.0
19.046282291412354,1553,0.0,0.0,0.0
19.05646777153015,4095,0.0,0.0,0.0
19.06652522087097,1507,0.0,0.0,0.0
19.07660150527954,4095,0.0,0.0,0.0
19.086270809173584,1483,0.0,0.0,0.0
19.096461057662964,4095,0.0,0.0,0.0
19.106172561645508,1414,0.0,0.0,0.0
19.11650013923645,4095,0.0,0.0,0.0
19.126399040222168,1423,0.0,0.0,0.0
19.136201858520508,4095,0.0,0.0,0.0
19.14629864692688,1382,0.0,0.0,0.0
19.156458854675293,4095,0.0,0.0,0.0
19.16630268096924,1354,0.0,0.0,0.0
19.176491260528564,4095,0.0,0.0,0.0
19.186048984527588,1414,0.0,0.0,0.0
19.196467638015747,4095,0.0,0.0,0.0
19.206429958343506,1422,0.0,0.0,0.0
19.216442584991455,4095,0.0,0.0,0.0
19.226303577423096,1457,0.0,0.0,0.0
19.236522436141968,4095,0.0,0.0,0.0
19.246290922164917,1436,0.0,0.0,0.0
19.256526231765747,4095,0.0,0.0,0.0
19.26631236076355,2075,0.0,0.0,0.0
19.2763409614563,4095,0.0,0.0,0.0
19.28650426864624,1936,0.0,0.0,0.0
19.29650092124939,3214,0.0,0.0,0.0
19.30628728866577,1766,0.0,0.0,0.0
19.3164803981781,2313,0.0,0.0,0.0
19.325823068618774,1679,0.0,0.0,0.0
19.336496829986572,2706,0.0,0.0,0.0
19.346287965774536,1616,0.0,0.0,0.0
19.35653305053711,3371,0.0,0.0,0.0
19.366292476654053,1581,0.0,0.0,0.0
19.376458168029785,4095,0.0,0.0,0.0
19.386324167251587,1506,0.0,0.0,0.0
19.39646816253662,4095,0.0,0.0,0.0
19.406304836273193,1403,0.0,0.0,0.0
19.415837287902832,4095,0.0,0.0,0.0
19.4262855052948,1245,0.0,0.0,0.0
19.436303853988647,4095,0.0,0.0,0.0
19.44627547264099,1121,0.0,0.0,0.0
19.455631256103516,4095,0.0,0.0,0.0
19.46566367149353,980,0.0,0.0,0.0
19.47536277770996,4095,0.0,0.0,0.0
19.48648953437805,812,0.0,0.0,0.0
19.496429204940796,4095,0.0,0.0,0.0
19.506014347076416,958,0.0,0.0,0.0
19.516077995300293,4095,0.0,0.0,0.0
19.526298761367798,1083,0.0,0.0,0.0
19.536497592926025,4095,0.0,0.0,0.0
19.546294927597046,1035,0.0,0.0,0.0
19.556448459625244,4095,0.0,0.0,0.0
19.565585374832153,1015,0.0,0.0,0.0
19.576460123062134,4095,0.0,0.0,0.0
19.586276531219482,987,0.0,0.0,0.0
19.59654688835144,4095,0.0,0.0,0.0
19.606340169906616,865,0.0,0.0,0.0
19.61652183532715,4095,0.0,0.0,0.0
19.626286029815674,881,0.0,0.0,0.0
19.636452674865723,4095,0.0,0.0,0.0
19.646283626556396,739,0.0,0.0,0.0
19.656447649002075,4095,0.0,0.0,0.0
19.665728330612183,732,0.0,0.0,0.0
19.6764976978302,4095,0.0,0.0,0.0
19.686312675476074,752,0.0,0.0,0.0
19.696423053741455,4095,0.0,0.0,0.0
19.70639657974243,831,0.0,0.0,0.0
19.716509342193604,4095,0.0,0.0,0.0
19.72572946548462,1153,0.0,0.0,0.0
19.736048460006714,4095,0.0,0.0,0.0
19.745858669281006,954,0.0,0.0,0.0
19.75677466392517,4095,0.0,0.0,0.0
19.76630401611328,934,0.0,0.0,0.0
19.775211811065674,4095,0.0,0.0,0.0
19.78629994392395,973,0.0,0.0,0.0
19.79652428627014,4095,0.0,0.0,0.0
19.805351734161377,885,0.0,0.0,0.0
19.81652283668518,4095,0.0,0.0,0.0
19.82629108428955,923,0.0,0.0,0.0
19.836395740509033,4095,0.0,0.0,0.0
19.84630584716797,827,0.0,0.0,0.0
19.856433153152466,4095,0.0,0.0,0.0
19.865821361541748,576,0.0,0.0,0.0
19.87641215324402,4095,0.0,0.0,0.0
19.886304140090942,438,0.0,0.0,0.0
19.895780563354492,4095,0.0,0.0,0.0
19.90629553794861,357,0.0,0.0,0.0
19.91652750968933,4095,0.0,0.0,0.0
19.9259512424469,372,0.0,0.0,0.0
19.93591570854187,4095,0.0,0.0,0.0
19.946540117263794,257,0.0,0.0,0.0
19.955738067626953,4095,0.0,0.0,0.0
19.96633005142212,197,0.0,0.0,0.0
19.97635841369629,4095,0.0,0.0,0.0
19.98997449874878,287,0.0,0.0,0.0
19.996355772018433,4095,0.0,0.0,0.0
20.006086826324463,171,0.0,0.0,0.0
20.016168355941772,4095,0.0,0.0,0.0
20.026283502578735,253,0.0,0.0,0.0
20.036455631256104,4095,0.0,0.0,0.0
20.04556155204773,651,0.0,0.0,0.0
20.05652642250061,4095,0.0,0.0,0.0
20.066290616989136,700,0.0,0.0,0.0
20.076502084732056,4095,0.0,0.0,0.0
20.086355924606323,640,0.0,0.0,0.0
20.09520387649536,4095,0.0,0.0,0.0
20.106303453445435,528,0.0,0.0,0.0
20.116483688354492,4095,0.0,0.0,0.0
20.125857830047607,467,0.0,0.0,0.0
20.136310338974,4095,0.0,0.0,0.0
20.1464364528656,457,0.0,0.0,0.0
20.155885934829712,4095,0.0,0.0,0.0
20.16594362258911,388,0.0,0.0,0.0
20.176361799240112,4095,0.0,0.0,0.0
20.186307430267334,285,0.0,0.0,0.0
20.19631028175354,4095,0.0,0.0,0.0
20.20647406578064,289,0.0,0.0,0.0
20.216545820236206,4095,0.0,0.0,0.0
20.226296424865723,176,0.0,0.0,0.0
20.236568927764893,4095,0.0,0.0,0.0
20.246396780014038,126,0.0,0.0,0.0
20.256548404693604,4095,0.0,0.0,0.0
20.26628303527832,154,0.0,0.0,0.0
20.27514362335205,4095,0.0,0.0,0.0
20.286343812942505,1326,0.0,0.0,0.0
20.296457290649414,4095,0.0,0.0,0.0
20.306301832199097,302,0.0,0.0,0.0
20.31648278236389,4095,0.0,0.0,0.0
20.32628607749939,304,0.0,0.0,0.0
20.335874795913696,4095,0.0,0.0,0.0
20.345574140548706,301,0.0,0.0,0.0
20.356484174728394,4095,0.0,0.0,0.0
20.365615367889404,279,0.0,0.0,0.0
20.3764910697937,4095,0.0,0.0,0.0
20.386511087417603,298,0.0,0.0,0.0
20.396573543548584,4095,0.0,0.0,0.0
20.40637516975403,266,0.0,0.0,0.0
20.416409254074097,4095,0.0,0.0,0.0
20.426554679870605,290,0.0,0.0,0.0
20.43649697303772,4095,0.0,0.0,0.0
20.445345878601074,268,0.0,0.0,0.0
20.456472873687744,4095,0.0,0.0,0.0
20.466513633728027,1866,0.0,0.0,0.0
20.476542711257935,4095,0.0,0.0,0.0
20.4862699508667,2377,0.0,0.0,0.0
20.49646306037903,4095,0.0,0.0,0.0
20.50631093978882,2294,0.0,0.0,0.0
20.516433715820312,4095,0.0,0.0,0.0
20.52587866783142,2273,0.0,0.0,0.0
20.53660225868225,4095,0.0,0.0,0.0
20.546473026275635,19,0.0,0.0,0.0
20.55642557144165,4095,0.0,0.0,0.0
20.566293478012085,187,0.0,0.0,0.0
20.57646942138672,4095,0.0,0.0,0.0
20.58585262298584,2415,0.0,0.0,0.0
20.59641981124878,4095,0.0,0.0,0.0
20.605456829071045,62,0.0,0.0,0.0
20.61650514602661,4095,0.0,0.0,0.0
20.626315116882324,139,0.0,0.0,0.0
20.636717796325684,4095,0.0,0.0,0.0
20.645859003067017,2366,0.0,0.0,0.0
20.655719757080078,4095,0.0,0.0,0.0
20.66629981994629,2435,0.0,0.0,0.0
20.676472663879395,4095,0.0,0.0,0.0
20.686301231384277,2439,0.0,0.0,0.0
20.696386098861694,4095,0.0,0.0,0.0
20.706314086914062,2550,0.0,0.0,0.0
20.716503858566284,4095,0.0,0.0,0.0
20.72629451751709,2607,0.0,0.0,0.0
20.73645257949829,4095,0.0,0.0,0.0
20.746328115463257,1506,0.0,0.0,0.0
20.756561756134033,4095,0.0,0.0,0.0
20.765596628189087,2001,0.0,0.0,0.0
20.776487350463867,4095,0.0,0.0,0.0
20.78643035888672,2066,0.0,0.0,0.0
20.796785593032837,4095,0.0,0.0,0.0
20.806294918060303,2099,0.0,0.0,0.0
20.816487312316895,4095,0.0,0.0,0.0
20.826682329177856,2033,0.0,0.0,0.0
20.836463928222656,4095,0.0,0.0,0.0
20.84628176689148,2013,0.0,0.0,0.0
20.856511116027832,4095,0.0,0.0,0.0
20.866289377212524,1989,0.0,0.0,0.0
20.876534700393677,4095,0.0,0.0,0.0
20.886306047439575,2338,0.0,0.0,0.0
20.8963406085968,4095,0.0,0.0,0.0
20.906553506851196,2400,0.0,0.0,0.0
20.916344165802002,4095,0.0,0.0,0.0
20.926286935806274,2370,0.0,0.0,0.0
20.935839414596558,3906,0.0,0.0,0.0
20.94628667831421,2277,0.0,0.0,0.0
20.956448793411255,3440,0.0,0.0,0.0
20.966302156448364,2367,0.0,0.0,0.0
20.9755117893219,4095,0.0,0.0,0.0
20.985897541046143,0,0.0,0.0,0.0
20.99641251564026,4095,0.0,0.0,0.0
21.005929946899414,2661,0.0,0.0,0.0
21.016586542129517,4095,0.0,0.0,0.0
21.026349782943726,0,0.0,0.0,0.0
21.036303758621216,4095,0.0,0.0,0.0
21.0451238155365,0,0.0,0.0,0.0
21.05651879310608,4095,0.0,0.0,0.0
21.066476345062256,0,0.0,0.0,0.0
21.076455116271973,4095,0.0,0.0,0.0
21.086011171340942,2624,0.0,0.0,0.0
21.09652829170227,4095,0.0,0.0,0.0
21.106293439865112,2434,0.0,0.0,0.0
21.115708589553833,4095,0.0,0.0,0.0
21.126290321350098,2394,0.0,0.0,0.0
21.13637137413025,4095,0.0,0.0,0.0
21.146315813064575,2522,0.0,0.0,0.0
21.156608819961548,4095,0.0,0.0,0.0
21.16629910469055,2479,0.0,0.0,0.0
21.176558017730713,4095,0.0,0.0,0.0
21.1857328414917,2390,0.0,0.0,0.0
21.196504831314087,4095,0.0,0.0,0.0
21.20647168159485,2064,0.0,0.0,0.0
21.21621561050415,4095,0.0,0.0,0.0
21.22602677345276,1933,0.0,0.0,0.0
21.236631870269775,4095,0.0,0.0,0.0
21.246487379074097,913,0.0,0.0,0.0
21.25646209716797,4095,0.0,0.0,0.0
21.26630926132202,848,0.0,0.0,0.0
21.27651309967041,4095,0.0,0.0,0.0
21.28566861152649,2231,0.0,0.0,0.0
21.296499967575073,4095,0.0,0.0,0.0
21.306559562683105,718,0.0,0.0,0.0
21.31544780731201,4095,0.0,0.0,0.0
21.326295375823975,2000,0.0,0.0,0.0
21.33639407157898,4095,0.0,0.0,0.0
21.345627546310425,1359,0.0,0.0,0.0
21.356547594070435,4095,0.0,0.0,0.0
21.36629009246826,1518,0.0,0.0,0.0
21.375763416290283,4095,0.0,0.0,0.0
21.385950088500977,1441,0.0,0.0,0.0
21.396830558776855,4095,0.0,0.0,0.0
21.406310319900513,1182,0.0,0.0,0.0
21.416481971740723,4095,0.0,0.0,0.0
21.42651653289795,1087,0.0,0.0,0.0
21.436627864837646,4095,0.0,0.0,0.0
21.445887327194214,927,0.0,0.0,0.0
21.45617699623108,4095,0.0,0.0,0.0
21.466288328170776,823,0.0,0.0,0.0
21.47600531578064,4095,0.0,0.0,0.0
21.486291646957397,727,0.0,0.0,0.0
21.495563983917236,4095,0.0,0.0,0.0
21.506319046020508,569,0.0,0.0,0.0
21.516883373260498,4095,0.0,0.0,0.0
21.52561092376709,708,0.0,0.0,0.0
21.53630018234253,4095,0.0,0.0,0.0
21.546473264694214,687,0.0,0.0,0.0
21.555864334106445,4095,0.0,0.0,0.0
21.56629991531372,649,0.0,0.0,0.0
21.576481103897095,4095,0.0,0.0,0.0
21.585413932800293,613,0.0,0.0,0.0
21.596866130828857,4095,0.0,0.0,0.0
21.606600761413574,535,0.0,0.0,0.0
21.61652684211731,4095,0.0,0.0,0.0
21.626298904418945,460,0.0,0.0,0.0
21.636401414871216,4095,0.0,0.0,0.0
21.645753145217896,752,0.0,0.0,0.0
21.656504154205322,4095,0.0,0.0,0.0
21.666268587112427,1223,0.0,0.0,0.0
21.676527976989746,4095,0.0,0.0,0.0
21.686596870422363,1731,0.0,0.0,0.0
21.696571588516235,4095,0.0,0.0,0.0
21.70645833015442,1689,0.0,0.0,0.0
21.71643877029419,4095,0.0,0.0,0.0
21.72629451751709,1490,0.0,0.0,0.0
21.736473083496094,4095,0.0,0.0,0.0
21.746564149856567,1346,0.0,0.0,0.0
21.756500244140625,4095,0.0,0.0,0.0
21.766282320022583,1296,0.0,0.0,0.0
21.776503562927246,4095,0.0,0.0,0.0
21.786309719085693,1239,0.0,0.0,0.0
21.796520233154297,4095,0.0,0.0,0.0
21.80644917488098,1395,0.0,0.0,0.0
21.816553354263306,4095,0.0,0.0,0.0
21.82629656791687,1201,0.0,0.0,0.0
21.836575269699097,4095,0.0,0.0,0.0
21.845710515975952,1155,0.0,0.0,0.0
21.8565890789032,4095,0.0,0.0,0.0
21.866320371627808,1798,0.0,0.0,0.0
21.87565588951111,4095,0.0,0.0,0.0
21.886373043060303,1857,0.0,0.0,0.0
21.89658808708191,4095,0.0,0.0,0.0
21.906644582748413,963,0.0,0.0,0.0
21.916645050048828,4095,0.0,0.0,0.0
21.926506519317627,1856,0.0,0.0,0.0
21.936488151550293,4095,0.0,0.0,0.0
21.946539163589478,1681,0.0,0.0,0.0
21.9557147026062,4095,0.0,0.0,0.0
21.966402769088745,1465,0.0,0.0,0.0
21.976572036743164,4095,0.0,0.0,0.0
21.98653507232666,337,0.0,0.0,0.0
21.99676275253296,4095,0.0,0.0,0.0
22.006197929382324,988,0.0,0.0,0.0
22.016390085220337,4095,0.0,0.0,0.0
22.026494026184082,790,0.0,0.0,0.0
22.03645157814026,4095,0.0,0.0,0.0
22.046459674835205,695,0.0,0.0,0.0
22.057612419128418,4095,0.0,0.0,0.0
22.066542863845825,1430,0.0,0.0,0.0
22.07589077949524,4095,0.0,0.0,0.0
22.086802005767822,2066,0.0,0.0,0.0
22.096468687057495,4095,0.0,0.0,0.0
22.10590887069702,1517,0.0,0.0,0.0
22.116589784622192,4095,0.0,0.0,0.0
22.126497507095337,1315,0.0,0.0,0.0
22.13634467124939,4095,0.0,0.0,0.0
22.146631956100464,1392,0.0,0.0,0.0
22.156614542007446,4095,0.0,0.0,0.0
22.166303396224976,21,0.0,0.0,0.0
22.17631721496582,4095,0.0,0.0,0.0
22.1863853931427,0,0.0,0.0,0.0
22.196690797805786,4095,0.0,0.0,0.0
22.20575261116028,0,0.0,0.0,0.0
22.216367721557617,4095,0.0,0.0,0.0
22.22630262374878,0,0.0,0.0,0.0
22.236327648162842,4095,0.0,0.0,0.0
22.246301651000977,0,0.0,0.0,0.0
22.25656795501709,4095,0.0,0.0,0.0
22.2656147480011,0,0.0,0.0,0.0
22.276320934295654,4095,0.0,0.0,0.0
22.28566861152649,0,0.0,0.0,0.0
22.296365976333618,4095,0.0,0.0,0.0
22.306493520736694,0,0.0,0.0,0.0
22.316441297531128,4095,0.0,0.0,0.0
22.32629942893982,0,0.0,0.0,0.0
22.336363554000854,4095,0.0,0.0,0.0
22.346292972564697,0,0.0,0.0,0.0
22.356451511383057,4095,0.0,0.0,0.0
22.366483211517334,0,0.0,0.0,0.0
22.376540899276733,4095,0.0,0.0,0.0
22.386539936065674,1168,0.0,0.0,0.0
22.396475791931152,4095,0.0,0.0,0.0
22.4062979221344,4031,0.0,0.0,0.0
22.416579008102417,4095,0.0,0.0,0.0
22.42513346672058,4095,0.0,0.0,0.0
22.435856819152832,4095,0.0,0.0,0.0
22.445605516433716,4095,0.0,0.0,0.0
22.456480503082275,4095,0.0,0.0,0.0
22.4655020236969,4095,0.0,0.0,0.0
22.475933074951172,4095,0.0,0.0,0.0
22.486480951309204,4095,0.0,0.0,0.0
22.496503591537476,4095,0.0,0.0,0.0
22.506901264190674,4095,0.0,0.0,0.0
22.51651406288147,4095,0.0,0.0,0.0
22.52534317970276,4095,0.0,0.0,0.0
22.53664541244507,4095,0.0,0.0,0.0
22.54638147354126,4095,0.0,0.0,0.0
22.55644464492798,4095,0.0,0.0,0.0
22.566390991210938,4095,0.0,0.0,0.0
22.576301336288452,4095,0.0,0.0,0.0
22.586296319961548,4095,0.0,0.0,0.0
22.597109079360962,4095,0.0,0.0,0.0
22.606374979019165,4095,0.0,0.0,0.0
22.6166250705719,4095,0.0,0.0,0.0
22.626309156417847,4095,0.0,0.0,0.0
22.636467933654785,4095,0.0,0.0,0.0
22.64616107940674,4095,0.0,0.0,0.0
22.656436443328857,4095,0.0,0.0,0.0
22.666126012802124,4095,0.0,0.0,0.0
22.676843404769897,4095,0.0,0.0,0.0
22.686174154281616,4095,0.0,0.0,0.0
22.696507453918457,4095,0.0,0.0,0.0
22.706547021865845,4095,0.0,0.0,0.0
22.716268301010132,4095,0.0,0.0,0.0
22.726479530334473,4095,0.0,0.0,0.0
22.736574172973633,4095,0.0,0.0,0.0
22.746506214141846,4095,0.0,0.0,0.0
22.756881713867188,4095,0.0,0.0,0.0
22.767066955566406,4095,0.0,0.0,0.0
22.776615619659424,4095,0.0,0.0,0.0
22.78633427619934,4095,0.0,0.0,0.0
22.796587228775024,4095,0.0,0.0,0.0
22.806679010391235,4095,0.0,0.0,0.0
22.81649160385132,4095,0.0,0.0,0.0
22.826736211776733,4095,0.0,0.0,0.0
22.836777925491333,4095,0.0,0.0,0.0
22.846705436706543,4095,0.0,0.0,0.0
22.856613159179688,4095,0.0,0.0,0.0
22.86580801010132,4095,0.0,0.0,0.0
22.87635612487793,4095,0.0,0.0,0.0
22.886337757110596,4095,0.0,0.0,0.0
22.89652919769287,4095,0.0,0.0,0.0
22.906410455703735,4095,0.0,0.0,0.0
22.916483879089355,4095,0.0,0.0,0.0
22.925586223602295,4095,0.0,0.0,0.0
22.936319589614868,4095,0.0,0.0,0.0
22.946303844451904,4095,0.0,0.0,0.0
22.95648193359375,4095,0.0,0.0,0.0
22.96651005744934,4095,0.0,0.0,0.0
22.975622177124023,4095,0.0,0.0,0.0
22.986610651016235,4095,0.0,0.0,0.0
22.996338367462158,4095,0.0,0.0,0.0
23.006868839263916,4095,0.0,0.0,0.0
23.016316413879395,4095,0.0,0.0,0.0
23.026307344436646,4095,0.0,0.0,0.0
23.036298513412476,4095,0.0,0.0,0.0
23.04654312133789,4095,0.0,0.0,0.0
23.056508779525757,4095,0.0,0.0,0.0
23.066365957260132,4095,0.0,0.0,0.0
23.076560020446777,4095,0.0,0.0,0.0
23.08657956123352,4095,0.0,0.0,0.0
23.0961492061615,4095,0.0,0.0,0.0
23.10628581047058,4095,0.0,0.0,0.0
23.116676092147827,4095,0.0,0.0,0.0
23.126585006713867,4095,0.0,0.0,0.0
23.13660717010498,4095,0.0,0.0,0.0
23.146446466445923,4095,0.0,0.0,0.0
23.156442880630493,4095,0.0,0.0,0.0
23.166717290878296,4095,0.0,0.0,0.0
23.176635026931763,4095,0.0,0.0,0.0
23.186326265335083,4095,0.0,0.0,0.0
23.1956684589386,4095,0.0,0.0,0.0
23.206418752670288,4095,0.0,0.0,0.0
23.216318368911743,4095,0.0,0.0,0.0
23.226616621017456,4095,0.0,0.0,0.0
23.236451864242554,4095,0.0,0.0,0.0
23.246647834777832,4095,0.0,0.0,0.0
23.256733179092407,4095,0.0,0.0,0.0
23.266295909881592,4095,0.0,0.0,0.0
23.2763569355011,4095,0.0,0.0,0.0
23.28619074821472,4095,0.0,0.0,0.0
23.296085357666016,4095,0.0,0.0,0.0
23.30682063102722,4095,0.0,0.0,0.0
23.31083083152771,4095,0.0,0.0,0.0
23.326231718063354,4095,0.0,0.0,0.0
23.33618712425232,4095,0.0,0.0,0.0
23.342641830444336,4095,0.0,0.0,0.0
23.35118317604065,4095,0.0,0.0,0.0
23.366612911224365,4095,0.0,0.0,0.0
23.375147819519043,4095,0.0,0.0,0.0
23.385952472686768,4095,0.0,0.0,0.0
23.396360158920288,4095,0.0,0.0,0.0
23.404107570648193,4095,0.0,0.0,0.0
23.411755323410034,4095,0.0,0.0,0.0
23.426286697387695,4095,0.0,0.0,0.0
23.434999465942383,4095,0.0,0.0,0.0
23.442677974700928,4095,0.0,0.0,0.0
23.456628561019897,4095,0.0,0.0,0.0
23.466668367385864,4095,0.0,0.0,0.0
23.47299027442932,4095,0.0,0.0,0.0
23.481650829315186,4095,0.0,0.0,0.0
23.496100425720215,4095,0.0,0.0,0.0
23.50468635559082,4095,0.0,0.0,0.0
23.51237177848816,4095,0.0,0.0,0.0
23.526710033416748,4095,0.0,0.0,0.0
23.536475896835327,4095,0.0,0.0,0.0
23.545371055603027,4095,0.0,0.0,0.0
23.556771516799927,4095,0.0,0.0,0.0
23.566953897476196,4095,0.0,0.0,0.0
23.572812795639038,4095,0.0,0.0,0.0
23.58406639099121,4095,0.0,0.0,0.0
23.59685254096985,4095,0.0,0.0,0.0
23.603458881378174,4095,0.0,0.0,0.0
23.615010261535645,4095,0.0,0.0,0.0
23.626754999160767,4095,0.0,0.0,0.0
23.635213375091553,4095,0.0,0.0,0.0
23.64317560195923,4095,0.0,0.0,0.0
23.65626096725464,4095,0.0,0.0,0.0
23.66490650177002,4095,0.0,0.0,0.0
23.672873973846436,4095,0.0,0.0,0.0
23.68702220916748,4095,0.0,0.0,0.0
23.69560194015503,4095,0.0,0.0,0.0
23.706706762313843,4095,0.0,0.0,0.0
23.710930585861206,4095,0.0,0.0,0.0
23.726259469985962,4095,0.0,0.0,0.0
23.73400616645813,4095,0.0,0.0,0.0
23.7460720539093,4095,0.0,0.0,0.0
23.756232261657715,4095,0.0,0.0,0.0
23.766949892044067,4095,0.0,0.0,0.0
23.77256989479065,4095,0.0,0.0,0.0
23.78701639175415,4095,0.0,0.0,0.0
23.796478033065796,4095,0.0,0.0,0.0
23.806546211242676,4095,0.0,0.0,0.0
23.811711311340332,4095,0.0,0.0,0.0
23.8260498046875,4095,0.0,0.0,0.0
23.834659576416016,4095,0.0,0.0,0.0
23.841421604156494,4095,0.0,0.0,0.0
23.85581374168396,4095,0.0,0.0,0.0
23.864365577697754,4095,0.0,0.0,0.0
23.87421202659607,4095,0.0,0.0,0.0
23.88670301437378,4095,0.0,0.0,0.0
23.896120071411133,4095,0.0,0.0,0.0
23.903717279434204,4095,0.0,0.0,0.0
23.911492824554443,4095,0.0,0.0,0.0
23.925849676132202,4095,0.0,0.0,0.0
23.93433380126953,4095,0.0,0.0,0.0
23.942190170288086,4095,0.0,0.0,0.0
23.95648503303528,4095,0.0,0.0,0.0
23.966867208480835,4095,0.0,0.0,0.0
23.97179865837097,4095,0.0,0.0,0.0
23.98634958267212,4095,0.0,0.0,0.0
23.99487853050232,4095,0.0,0.0,0.0
24.006436347961426,4095,0.0,0.0,0.0
24.017247915267944,4095,0.0,0.0,0.0
24.0265953540802,4095,0.0,0.0,0.0
24.0366153717041,4095,0.0,0.0,0.0
24.040981769561768,4095,0.0,0.0,0.0
24.056255340576172,4095,0.0,0.0,0.0
24.066904544830322,4095,0.0,0.0,0.0
24.07258701324463,4095,0.0,0.0,0.0
24.085910081863403,4095,0.0,0.0,0.0
24.094669580459595,4095,0.0,0.0,0.0
24.10262441635132,4095,0.0,0.0,0.0
24.116846799850464,4095,0.0,0.0,0.0
24.126257181167603,4095,0.0,0.0,0.0
24.133991718292236,4095,0.0,0.0,0.0
24.143194675445557,4095,0.0,0.0,0.0
24.15601658821106,4095,0.0,0.0,0.0
24.16687822341919,4095,0.0,0.0,0.0
24.172637701034546,2768,0.0,0.0,0.0
24.1858069896698,4095,0.0,0.0,0.0
24.195945978164673,2737,0.0,0.0,0.0
24.204583883285522,4095,0.0,0.0,0.0
24.216846227645874,4095,0.0,0.0,0.0
24.226354360580444,4095,0.0,0.0,0.0
24.233899354934692,4095,0.0,0.0,0.0
24.24378752708435,4095,0.0,0.0,0.0
24.256834030151367,4095,0.0,0.0,0.0
24.263502836227417,4095,0.0,0.0,0.0
24.27124309539795,4095,0.0,0.0,0.0
24.28658676147461,4095,0.0,0.0,0.0
24.295701503753662,4095,0.0,0.0,0.0
24.302981853485107,4095,0.0,0.0,0.0
24.316840171813965,4095,0.0,0.0,0.0
24.324934482574463,4095,0.0,0.0,0.0
24.332703113555908,4095,0.0,0.0,0.0
24.346986532211304,4095,0.0,0.0,0.0
24.356925010681152,4095,0.0,0.0,0.0
24.367028951644897,4095,0.0,0.0,0.0
24.37195611000061,4095,0.0,0.0,0.0
24.386653423309326,4095,0.0,0.0,0.0
24.39596438407898,4095,0.0,0.0,0.0
24.40666151046753,4095,0.0,0.0,0.0
24.416158199310303,4095,0.0,0.0,0.0
24.424755811691284,4095,0.0,0.0,0.0
24.43366813659668,2062,0.0,0.0,0.0
24.44703245162964,4095,0.0,0.0,0.0
24.456618070602417,1066,0.0,0.0,0.0
24.46695852279663,4095,0.0,0.0,0.0
24.470640659332275,1182,0.0,0.0,0.0
24.48723864555359,4095,0.0,0.0,0.0
24.493745803833008,1004,0.0,0.0,0.0
24.501589059829712,4095,0.0,0.0,0.0
24.51602554321289,912,0.0,0.0,0.0
24.52444291114807,4095,0.0,0.0,0.0
24.53337287902832,1270,0.0,0.0,0.0
24.546894311904907,4095,0.0,0.0,0.0
24.554174184799194,1809,0.0,0.0,0.0
24.563921689987183,4095,0.0,0.0,0.0
24.570521354675293,1879,0.0,0.0,0.0
24.584834814071655,4095,0.0,0.0,0.0
24.596438884735107,2550,0.0,0.0,0.0
24.604175329208374,4095,0.0,0.0,0.0
24.61658000946045,2672,0.0,0.0,0.0
24.62417459487915,4095,0.0,0.0,0.0
24.63643479347229,2736,0.0,0.0,0.0
24.64648699760437,4095,0.0,0.0,0.0
24.65501356124878,3331,0.0,0.0,0.0
24.662746906280518,4095,0.0,0.0,0.0
24.67698907852173,2407,0.0,0.0,0.0
24.684620141983032,4095,0.0,0.0,0.0
24.69433903694153,2187,0.0,0.0,0.0
24.705477476119995,4095,0.0,0.0,0.0
24.71637272834778,1552,0.0,0.0,0.0
24.724045276641846,4095,0.0,0.0,0.0
24.73171901702881,1951,0.0,0.0,0.0
24.74172568321228,4095,0.0,0.0,0.0
24.75568413734436,2510,0.0,0.0,0.0
24.76235294342041,4095,0.0,0.0,0.0
24.77688193321228,1984,0.0,0.0,0.0
24.784557580947876,4095,0.0,0.0,0.0
24.79671287536621,2178,0.0,0.0,0.0
24.802037239074707,4095,0.0,0.0,0.0
24.816604614257812,1888,0.0,0.0,0.0
24.826412439346313,4095,0.0,0.0,0.0
24.835783004760742,1041,0.0,0.0,0.0
24.84854531288147,4095,0.0,0.0,0.0
24.85675597190857,1201,0.0,0.0,0.0
24.866039276123047,4095,0.0,0.0,0.0
24.876606464385986,891,0.0,0.0,0.0
24.88663959503174,4095,0.0,0.0,0.0
24.896230936050415,1142,0.0,0.0,0.0
24.90632677078247,4095,0.0,0.0,0.0
24.916114330291748,781,0.0,0.0,0.0
24.926146984100342,4095,0.0,0.0,0.0
24.935930728912354,1568,0.0,0.0,0.0
24.9457266330719,4095,0.0,0.0,0.0
24.956494569778442,401,0.0,0.0,0.0
24.97777795791626,4095,0.0,0.0,0.0
24.978681087493896,0,0.0,0.0,0.0
24.98668622970581,4095,0.0,0.0,0.0
24.996564149856567,656,0.0,0.0,0.0
25.006175994873047,4095,0.0,0.0,0.0
25.014631986618042,654,0.0,0.0,0.0
25.02611804008484,4095,0.0,0.0,0.0
25.036327123641968,894,0.0,0.0,0.0
25.04627251625061,4095,0.0,0.0,0.0
25.05611300468445,1008,0.0,0.0,0.0
25.06707239151001,4095,0.0,0.0,0.0
25.075969696044922,885,0.0,0.0,0.0
25.086288452148438,4095,0.0,0.0,0.0
25.093912839889526,1427,0.0,0.0,0.0
25.106676816940308,4095,0.0,0.0,0.0
25.116342067718506,1458,0.0,0.0,0.0
25.124040603637695,4095,0.0,0.0,0.0
25.13481092453003,2446,0.0,0.0,0.0
25.146535634994507,4095,0.0,0.0,0.0
25.153733253479004,2665,0.0,0.0,0.0
25.16662049293518,4095,0.0,0.0,0.0
25.17667841911316,1990,0.0,0.0,0.0
25.18669033050537,4095,0.0,0.0,0.0
25.192261219024658,2095,0.0,0.0,0.0
25.20675039291382,4095,0.0,0.0,0.0
25.216743230819702,1746,0.0,0.0,0.0
25.217740058898926,4095,0.0,0.0,0.0
25.235938787460327,1612,0.0,0.0,0.0
25.246043920516968,4095,0.0,0.0,0.0
25.253863096237183,1670,0.0,0.0,0.0
25.267229080200195,4095,0.0,0.0,0.0
25.276683568954468,2092,0.0,0.0,0.0
25.28514337539673,4095,0.0,0.0,0.0
25.29417061805725,1590,0.0,0.0,0.0
25.306535243988037,4095,0.0,0.0,0.0
25.31604814529419,1330,0.0,0.0,0.0
25.322718381881714,4095,0.0,0.0,0.0
25.334259033203125,1070,0.0,0.0,0.0
25.346703052520752,4095,0.0,0.0,0.0
25.35329842567444,1507,0.0,0.0,0.0
25.363112926483154,4095,0.0,0.0,0.0
25.37638759613037,935,0.0,0.0,0.0
25.386889219284058,4095,0.0,0.0,0.0
25.392776489257812,827,0.0,0.0,0.0
25.406179666519165,4095,0.0,0.0,0.0
25.41692614555359,391,0.0,0.0,0.0
25.422723531723022,4095,0.0,0.0,0.0
25.437039136886597,612,0.0,0.0,0.0
25.44577407836914,4095,0.0,0.0,0.0
25.4563148021698,372,0.0,0.0,0.0
25.466864824295044,4095,0.0,0.0,0.0
25.47613263130188,272,0.0,0.0,0.0
25.486740589141846,4095,0.0,0.0,0.0
25.49251651763916,0,0.0,0.0,0.0
25.50601053237915,4095,0.0,0.0,0.0
25.516743421554565,0,0.0,0.0,0.0
25.523436546325684,4095,0.0,0.0,0.0
25.53657555580139,672,0.0,0.0,0.0
25.54636287689209,4095,0.0,0.0,0.0
25.55300807952881,668,0.0,0.0,0.0
25.567039966583252,4095,0.0,0.0,0.0
25.57626986503601,720,0.0,0.0,0.0
25.586641311645508,4095,0.0,0.0,0.0
25.593517541885376,771,0.0,0.0,0.0
25.60628342628479,4095,0.0,0.0,0.0
25.616959810256958,615,0.0,0.0,0.0
25.626046180725098,4095,0.0,0.0,0.0
25.63667106628418,578,0.0,0.0,0.0
25.64670443534851,4095,0.0,0.0,0.0
25.652682781219482,374,0.0,0.0,0.0
25.665956020355225,4095,0.0,0.0,0.0
25.675286769866943,275,0.0,0.0,0.0
25.68657422065735,4095,0.0,0.0,0.0
25.690617561340332,267,0.0,0.0,0.0
25.70223116874695,4095,0.0,0.0,0.0
25.71664571762085,0,0.0,0.0,0.0
25.721041440963745,4095,0.0,0.0,0.0
25.736701011657715,0,0.0,0.0,0.0
25.747188806533813,4095,0.0,0.0,0.0
25.751975059509277,0,0.0,0.0,0.0
25.76198172569275,4095,0.0,0.0,0.0
25.7719829082489,0,0.0,0.0,0.0
25.78678870201111,4095,0.0,0.0,0.0
25.79680824279785,0,0.0,0.0,0.0
25.806334257125854,4095,0.0,0.0,0.0
25.81477689743042,0,0.0,0.0,0.0
25.821444272994995,4095,0.0,0.0,0.0
25.836116552352905,0,0.0,0.0,0.0
25.837111711502075,4095,0.0,0.0,0.0
25.852445125579834,0,0.0,0.0,0.0
25.86249041557312,4095,0.0,0.0,0.0
25.876615047454834,0,0.0,0.0,0.0
25.88642644882202,4095,0.0,0.0,0.0
25.891510486602783,0,0.0,0.0,0.0
25.906020641326904,4095,0.0,0.0,0.0
25.916733503341675,0,0.0,0.0,0.0
25.92225670814514,4095,0.0,0.0,0.0
25.936092376708984,2339,0.0,0.0,0.0
25.94516372680664,4095,0.0,0.0,0.0
25.952945947647095,2779,0.0,0.0,0.0
25.966492891311646,4095,0.0,0.0,0.0
25.975934267044067,176,0.0,0.0,0.0
25.986371755599976,4095,0.0,0.0,0.0
25.992327213287354,0,0.0,0.0,0.0
26.006600856781006,4095,0.0,0.0,0.0
26.01662516593933,0,0.0,0.0,0.0
26.020982265472412,4095,0.0,0.0,0.0
26.036250591278076,0,0.0,0.0,0.0
26.045047521591187,4095,0.0,0.0,0.0
26.05386972427368,0,0.0,0.0,0.0
26.066494941711426,4095,0.0,0.0,0.0
26.068971157073975,0,0.0,0.0,0.0
26.086575508117676,4095,0.0,0.0,0.0
26.091934204101562,2791,0.0,0.0,0.0
26.099740505218506,4095,0.0,0.0,0.0
26.11574077606201,0,0.0,0.0,0.0
26.126132249832153,4095,0.0,0.0,0.0
26.13614535331726,0,0.0,0.0,0.0
26.146431922912598,4095,0.0,0.0,0.0
26.152706384658813,3060,0.0,0.0,0.0
26.166374444961548,4095,0.0,0.0,0.0
26.17556858062744,0,0.0,0.0,0.0
26.185025453567505,4095,0.0,0.0,0.0
26.196966886520386,1776,0.0,0.0,0.0
26.20523738861084,4095,0.0,0.0,0.0
26.212918281555176,0,0.0,0.0,0.0
26.220589876174927,4095,0.0,0.0,0.0
26.23590874671936,0,0.0,0.0,0.0
26.244643211364746,4095,0.0,0.0,0.0
26.25634789466858,2662,0.0,0.0,0.0
26.266592502593994,4095,0.0,0.0,0.0
26.273317098617554,2810,0.0,0.0,0.0
26.283143997192383,4095,0.0,0.0,0.0
26.29667615890503,2682,0.0,0.0,0.0
26.30640411376953,4095,0.0,0.0,0.0
26.31667995452881,2943,0.0,0.0,0.0
26.320379495620728,4095,0.0,0.0,0.0
26.33661413192749,2963,0.0,0.0,0.0
26.34438133239746,4095,0.0,0.0,0.0
26.352048873901367,2288,0.0,0.0,0.0
26.366586923599243,4095,0.0,0.0,0.0
26.374992847442627,2855,0.0,0.0,0.0
26.386091470718384,4095,0.0,0.0,0.0
26.396403551101685,2419,0.0,0.0,0.0
26.404865741729736,4095,0.0,0.0,0.0
26.416579484939575,2167,0.0,0.0,0.0
26.42684507369995,4095,0.0,0.0,0.0
26.435492277145386,1031,0.0,0.0,0.0
26.44215202331543,4095,0.0,0.0,0.0
26.450947999954224,990,0.0,0.0,0.0
26.466168642044067,4095,0.0,0.0,0.0
26.473819494247437,833,0.0,0.0,0.0
26.485288619995117,4095,0.0,0.0,0.0
26.496275901794434,753,0.0,0.0,0.0
26.50468111038208,4095,0.0,0.0,0.0
26.515958070755005,549,0.0,0.0,0.0
26.52583622932434,4095,0.0,0.0,0.0
26.53461527824402,414,0.0,0.0,0.0
26.543297290802002,4095,0.0,0.0,0.0
26.55612587928772,291,0.0,0.0,0.0
26.569820165634155,4095,0.0,0.0,0.0
26.57587432861328,107,0.0,0.0,0.0
26.58595871925354,4095,0.0,0.0,0.0
26.596092700958252,91,0.0,0.0,0.0
26.60606575012207,4095,0.0,0.0,0.0
26.61627197265625,0,0.0,0.0,0.0
26.626336812973022,4095,0.0,0.0,0.0
26.636207342147827,0,0.0,0.0,0.0
26.64252209663391,4095,0.0,0.0,0.0
26.65692114830017,1616,0.0,0.0,0.0
26.666320085525513,4095,0.0,0.0,0.0
26.676634311676025,0,0.0,0.0,0.0
26.685607433319092,4095,0.0,0.0,0.0
26.696367502212524,0,0.0,0.0,0.0
26.706003665924072,4095,0.0,0.0,0.0
26.7127788066864,960,0.0,0.0,0.0
26.726297855377197,4095,0.0,0.0,0.0
26.735724210739136,2694,0.0,0.0,0.0
26.742347478866577,4095,0.0,0.0,0.0
26.75698757171631,2479,0.0,0.0,0.0
26.766677379608154,4095,0.0,0.0,0.0
26.776674032211304,2631,0.0,0.0,0.0
26.78503680229187,4095,0.0,0.0,0.0
26.796117067337036,1059,0.0,0.0,0.0
26.805783987045288,4095,0.0,0.0,0.0
26.816709995269775,1146,0.0,0.0,0.0
26.825820207595825,4095,0.0,0.0,0.0
26.83656096458435,4095,0.0,0.0,0.0
26.84316635131836,4095,0.0,0.0,0.0
26.85684871673584,4095,0.0,0.0,0.0
26.866361618041992,4095,0.0,0.0,0.0
26.87330198287964,4095,0.0,0.0,0.0
26.88566756248474,4095,0.0,0.0,0.0
26.896852254867554,4095,0.0,0.0,0.0
26.904857635498047,4095,0.0,0.0,0.0
26.916610717773438,4095,0.0,0.0,0.0
26.92656397819519,4095,0.0,0.0,0.0
26.935978651046753,4095,0.0,0.0,0.0
26.942458391189575,4095,0.0,0.0,0.0
26.956457376480103,4095,0.0,0.0,0.0
26.966535568237305,4095,0.0,0.0,0.0
26.97654700279236,4095,0.0,0.0,0.0
26.986048698425293,4095,0.0,0.0,0.0
26.995608806610107,4095,0.0,0.0,0.0
27.005730152130127,4095,0.0,0.0,0.0
27.016716957092285,4095,0.0,0.0,0.0
27.02630853652954,4095,0.0,0.0,0.0
27.036192178726196,4095,0.0,0.0,0.0
27.046269416809082,4095,0.0,0.0,0.0
27.05620241165161,4095,0.0,0.0,0.0
27.066129207611084,4095,0.0,0.0,0.0
27.074986696243286,4095,0.0,0.0,0.0
27.08702826499939,4095,0.0,0.0,0.0
27.096433401107788,4095,0.0,0.0,0.0
27.104685068130493,4095,0.0,0.0,0.0
27.11347198486328,4095,0.0,0.0,0.0
27.12613081932068,4095,0.0,0.0,0.0
27.135916709899902,4095,0.0,0.0,0.0
27.143715381622314,4095,0.0,0.0,0.0
27.1559419631958,4095,0.0,0.0,0.0
27.166959047317505,4095,0.0,0.0,0.0
27.17651677131653,4095,0.0,0.0,0.0
27.186687707901,4095,0.0,0.0,0.0
27.195204973220825,4095,0.0,0.0,0.0
27.206312894821167,4095,0.0,0.0,0.0
27.21645474433899,4095,0.0,0.0,0.0
27.225820302963257,4095,0.0,0.0,0.0
27.236186265945435,4095,0.0,0.0,0.0
27.244419813156128,4095,0.0,0.0,0.0
27.25650143623352,4095,0.0,0.0,0.0
27.266238689422607,4095,0.0,0.0,0.0
27.273017168045044,4095,0.0,0.0,0.0
27.28606081008911,4095,0.0,0.0,0.0
27.29667615890503,4095,0.0,0.0,0.0
27.302701473236084,4095,0.0,0.0,0.0
27.312395572662354,4095,0.0,0.0,0.0
27.326605796813965,4095,0.0,0.0,0.0
27.336828231811523,4095,0.0,0.0,0.0
27.340951442718506,4095,0.0,0.0,0.0
27.356324434280396,4095,0.0,0.0,0.0
27.36653757095337,4095,0.0,0.0,0.0
27.37635612487793,4095,0.0,0.0,0.0
27.38657832145691,4095,0.0,0.0,0.0
27.394688844680786,4095,0.0,0.0,0.0
27.406321048736572,4095,0.0,0.0,0.0
27.41636872291565,4095,0.0,0.0,0.0
27.42637586593628,4095,0.0,0.0,0.0
27.436787605285645,4095,0.0,0.0,0.0
27.44178342819214,4095,0.0,0.0,0.0
27.45611333847046,4095,0.0,0.0,0.0
27.466519594192505,4095,0.0,0.0,0.0
27.474032878875732,4095,0.0,0.0,0.0
27.486070156097412,4095,0.0,0.0,0.0
27.495453596115112,4095,0.0,0.0,0.0
27.50329899787903,4095,0.0,0.0,0.0
27.51678156852722,4095,0.0,0.0,0.0
27.526273727416992,4095,0.0,0.0,0.0
27.53616714477539,4095,0.0,0.0,0.0
27.541472911834717,4095,0.0,0.0,0.0
27.5558602809906,4095,0.0,0.0,0.0
27.5662841796875,4095,0.0,0.0,0.0
27.57575750350952,4095,0.0,0.0,0.0
27.586745023727417,4095,0.0,0.0,0.0
27.59658908843994,4095,0.0,0.0,0.0
27.604551553726196,4095,0.0,0.0,0.0
27.617101669311523,4095,0.0,0.0,0.0
27.62644910812378,4095,0.0,0.0,0.0
27.635913372039795,4095,0.0,0.0,0.0
27.647048950195312,4095,0.0,0.0,0.0
27.65561556816101,4095,0.0,0.0,0.0
27.666216373443604,4095,0.0,0.0,0.0
27.671979188919067,4095,0.0,0.0,0.0
27.686373472213745,4095,0.0,0.0,0.0
27.694007873535156,4095,0.0,0.0,0.0
27.705095529556274,4095,0.0,0.0,0.0
27.716166019439697,4095,0.0,0.0,0.0
27.724742650985718,4095,0.0,0.0,0.0
27.73578381538391,4095,0.0,0.0,0.0
27.747008323669434,3623,0.0,0.0,0.0
27.75638198852539,4095,0.0,0.0,0.0
27.766191005706787,3503,0.0,0.0,0.0
27.77143096923828,4095,0.0,0.0,0.0
27.786095142364502,4049,0.0,0.0,0.0
27.794753551483154,4095,0.0,0.0,0.0
27.803942918777466,3290,0.0,0.0,0.0
27.81635308265686,4095,0.0,0.0,0.0
27.82445526123047,2883,0.0,0.0,0.0
27.835890531539917,4095,0.0,0.0,0.0
27.84682059288025,4095,0.0,0.0,0.0
27.85513687133789,4095,0.0,0.0,0.0
27.8661048412323,4095,0.0,0.0,0.0
27.872957229614258,4095,0.0,0.0,0.0
27.88629913330078,4095,0.0,0.0,0.0
27.894487380981445,4095,0.0,0.0,0.0
27.903984785079956,4095,0.0,0.0,0.0
27.916558265686035,4095,0.0,0.0,0.0
27.925178050994873,4095,0.0,0.0,0.0
27.936232328414917,4095,0.0,0.0,0.0
27.94652247428894,4095,0.0,0.0,0.0
27.95398449897766,4095,0.0,0.0,0.0
27.966403484344482,4095,0.0,0.0,0.0
27.977010488510132,4095,0.0,0.0,0.0
27.985276460647583,4095,0.0,0.0,0.0
27.993329763412476,4095,0.0,0.0,0.0
28.004804372787476,4095,0.0,0.0,0.0
28.016303777694702,4095,0.0,0.0,0.0
28.025876998901367,4095,0.0,0.0,0.0
28.036756992340088,4095,0.0,0.0,0.0
28.0461368560791,4095,0.0,0.0,0.0
28.056851148605347,4095,0.0,0.0,0.0
28.066299438476562,4095,0.0,0.0,0.0
28.077117443084717,4095,0.0,0.0,0.0
28.086368799209595,4095,0.0,0.0,0.0
28.09403705596924,4095,0.0,0.0,0.0
28.100371599197388,4095,0.0,0.0,0.0
28.116326570510864,4095,0.0,0.0,0.0
28.122761487960815,4095,0.0,0.0,0.0
28.135283708572388,4095,0.0,0.0,0.0
28.13942575454712,4095,0.0,0.0,0.0
28.154465675354004,4095,0.0,0.0,0.0
28.166120529174805,1269,0.0,0.0,0.0
28.176199197769165,4095,0.0,0.0,0.0
28.185688972473145,943,0.0,0.0,0.0
28.195995569229126,4095,0.0,0.0,0.0
28.207008838653564,534,0.0,0.0,0.0
28.207008838653564,4095,0.0,0.0,0.0
28.22613286972046,4095,0.0,0.0,0.0
28.23523759841919,4095,0.0,0.0,0.0
28.246278047561646,4095,0.0,0.0,0.0
28.25368618965149,4095,0.0,0.0,0.0
28.266253232955933,4095,0.0,0.0,0.0
28.26924705505371,4095,0.0,0.0,0.0
28.284462690353394,4095,0.0,0.0,0.0
28.296637535095215,4095,0.0,0.0,0.0
28.306663990020752,4095,0.0,0.0,0.0
28.306663990020752,4095,0.0,0.0,0.0
28.326668739318848,4095,0.0,0.0,0.0
28.33678388595581,4095,0.0,0.0,0.0
28.3387770652771,4095,0.0,0.0,0.0
28.348819255828857,4095,0.0,0.0,0.0
28.358820915222168,4095,0.0,0.0,0.0
28.368828296661377,4095,0.0,0.0,0.0
28.378832578659058,4095,0.0,0.0,0.0
28.39191198348999,4095,0.0,0.0,0.0
28.406400680541992,4095,0.0,0.0,0.0
28.407397270202637,4095,0.0,0.0,0.0
28.420483112335205,4095,0.0,0.0,0.0
28.433039665222168,4095,0.0,0.0,0.0
28.44607186317444,4095,0.0,0.0,0.0
28.453136444091797,4095,0.0,0.0,0.0
28.466019868850708,4095,0.0,0.0,0.0
28.468014240264893,4095,0.0,0.0,0.0
28.48306894302368,4095,0.0,0.0,0.0
28.49389410018921,4095,0.0,0.0,0.0
28.505887746810913,4095,0.0,0.0,0.0
28.506885528564453,4095,0.0,0.0,0.0
28.518171310424805,4095,0.0,0.0,0.0
28.528212785720825,4095,0.0,0.0,0.0
28.54042410850525,4095,0.0,0.0,0.0
28.55312466621399,4095,0.0,0.0,0.0
28.566654443740845,4095,0.0,0.0,0.0
28.570350885391235,4095,0.0,0.0,0.0
28.577916622161865,4095,0.0,0.0,0.0
28.595381498336792,4095,0.0,0.0,0.0
28.60593056678772,1513,0.0,0.0,0.0
28.615867614746094,4095,0.0,0.0,0.0
28.622037649154663,95,0.0,0.0,0.0
28.6335346698761,4095,0.0,0.0,0.0
28.64586114883423,0,0.0,0.0,0.0
28.656525373458862,4095,0.0,0.0,0.0
28.66615867614746,80,0.0,0.0,0.0
28.671632528305054,4095,0.0,0.0,0.0
28.683891773223877,320,0.0,0.0,0.0
28.69305729866028,4095,0.0,0.0,0.0
28.706434965133667,391,0.0,0.0,0.0
28.716449975967407,4095,0.0,0.0,0.0
28.726446628570557,346,0.0,0.0,0.0
28.736525058746338,4095,0.0,0.0,0.0
28.746522426605225,383,0.0,0.0,0.0
28.752580642700195,4095,0.0,0.0,0.0
28.76259207725525,401,0.0,0.0,0.0
28.776397705078125,4095,0.0,0.0,0.0
28.78641128540039,402,0.0,0.0,0.0
28.796406984329224,4095,0.0,0.0,0.0
28.805567502975464,369,0.0,0.0,0.0
28.815837860107422,4095,0.0,0.0,0.0
28.819840669631958,332,0.0,0.0,0.0
28.832679986953735,4095,0.0,0.0,0.0
28.843664407730103,326,0.0,0.0,0.0
28.85013175010681,4095,0.0,0.0,0.0
28.86607003211975,304,0.0,0.0,0.0
28.87321186065674,4095,0.0,0.0,0.0
28.88648509979248,269,0.0,0.0,0.0
28.894492387771606,4095,0.0,0.0,0.0
28.906259775161743,231,0.0,0.0,0.0
28.9157657623291,4095,0.0,0.0,0.0
28.920170783996582,182,0.0,0.0,0.0
28.933481693267822,4095,0.0,0.0,0.0
28.943499088287354,135,0.0,0.0,0.0
28.95349907875061,4095,0.0,0.0,0.0
28.963499784469604,64,0.0,0.0,0.0
28.973498344421387,4095,0.0,0.0,0.0
28.986637353897095,178,0.0,0.0,0.0
28.988752365112305,4095,0.0,0.0,0.0
28.999632120132446,188,0.0,0.0,0.0
29.00962996482849,4095,0.0,0.0,0.0
29.01766800880432,112,0.0,0.0,0.0
29.027679204940796,4095,0.0,0.0,0.0
29.03767991065979,65,0.0,0.0,0.0
29.0493426322937,4095,0.0,0.0,0.0
29.059355974197388,47,0.0,0.0,0.0
29.07650661468506,4095,0.0,0.0,0.0
29.085875272750854,0,0.0,0.0,0.0
29.08787250518799,4095,0.0,0.0,0.0
29.101898431777954,41,0.0,0.0,0.0
29.116031169891357,4095,0.0,0.0,0.0
29.117031812667847,112,0.0,0.0,0.0
29.127081632614136,4095,0.0,0.0,0.0
29.13708233833313,160,0.0,0.0,0.0
29.155935049057007,4095,0.0,0.0,0.0
29.165956258773804,111,0.0,0.0,0.0
29.16988515853882,4095,0.0,0.0,0.0
29.18261432647705,171,0.0,0.0,0.0
29.193602800369263,4095,0.0,0.0,0.0
29.206607580184937,0,0.0,0.0,0.0
29.206607580184937,4095,0.0,0.0,0.0
29.226613998413086,0,0.0,0.0,0.0
29.234232664108276,4095,0.0,0.0,0.0
29.245772123336792,0,0.0,0.0,0.0
29.24677062034607,4095,0.0,0.0,0.0
29.26599621772766,0,0.0,0.0,0.0
29.26702642440796,4095,0.0,0.0,0.0
29.277037858963013,0,0.0,0.0,0.0
29.295642852783203,4095,0.0,0.0,0.0
29.302967071533203,0,0.0,0.0,0.0
29.3158917427063,4095,0.0,0.0,0.0
29.325937032699585,2187,0.0,0.0,0.0
29.33651566505432,4095,0.0,0.0,0.0
29.340867519378662,2631,0.0,0.0,0.0
29.355987548828125,4095,0.0,0.0,0.0
29.365936279296875,2672,0.0,0.0,0.0
29.366934061050415,4095,0.0,0.0,0.0
29.376943826675415,0,0.0,0.0,0.0
29.38694477081299,4095,0.0,0.0,0.0
29.400007963180542,0,0.0,0.0,0.0
29.415615558624268,4095,0.0,0.0,0.0
29.41763210296631,0,0.0,0.0,0.0
29.427639484405518,4095,0.0,0.0,0.0
29.437639951705933,0,0.0,0.0,0.0
29.450904607772827,4095,0.0,0.0,0.0
29.465704202651978,0,0.0,0.0,0.0
29.46670389175415,4095,0.0,0.0,0.0
29.476720094680786,0,0.0,0.0,0.0
29.486733198165894,4095,0.0,0.0,0.0
29.496746063232422,0,0.0,0.0,0.0
29.51579785346985,4095,0.0,0.0,0.0
29.51891326904297,0,0.0,0.0,0.0
29.53343915939331,4095,0.0,0.0,0.0
29.546342849731445,0,0.0,0.0,0.0
29.555328607559204,4095,0.0,0.0,0.0
29.565643548965454,2599,0.0,0.0,0.0
29.566641330718994,997,0.0,0.0,0.0
29.58436346054077,2851,0.0,0.0,0.0
29.591267347335815,1227,0.0,0.0,0.0
29.60577630996704,0,0.0,0.0,0.0
29.61596703529358,1106,0.0,0.0,0.0
29.62547993659973,0,0.0,0.0,0.0
29.627784252166748,2978,0.0,0.0,0.0
29.646016359329224,2795,0.0,0.0,0.0
29.656142950057983,1773,0.0,0.0,0.0
29.665953159332275,2693,0.0,0.0,0.0
29.67307686805725,1241,0.0,0.0,0.0
29.686585664749146,2611,0.0,0.0,0.0
29.69663381576538,1281,0.0,0.0,0.0
29.706608772277832,2618,0.0,0.0,0.0
29.706608772277832,693,0.0,0.0,0.0
29.727840423583984,2594,0.0,0.0,0.0
29.73598575592041,881,0.0,0.0,0.0
29.743869066238403,2670,0.0,0.0,0.0
29.756554126739502,1073,0.0,0.0,0.0
29.766286611557007,2496,0.0,0.0,0.0
29.773972511291504,1200,0.0,0.0,0.0
29.78624987602234,2512,0.0,0.0,0.0
29.794463396072388,1233,0.0,0.0,0.0
29.80446457862854,2594,0.0,0.0,0.0
29.814465284347534,1645,0.0,0.0,0.0
29.824464797973633,2658,0.0,0.0,0.0
29.835943698883057,2578,0.0,0.0,0.0
29.840137481689453,2529,0.0,0.0,0.0
29.85124182701111,2955,0.0,0.0,0.0
29.862746953964233,2241,0.0,0.0,0.0
29.872764587402344,3660,0.0,0.0,0.0
29.88276195526123,2250,0.0,0.0,0.0
29.896838903427124,4007,0.0,0.0,0.0
29.906853914260864,2881,0.0,0.0,0.0
29.906853914260864,4095,0.0,0.0,0.0
29.921118021011353,2369,0.0,0.0,0.0
29.935831308364868,4095,0.0,0.0,0.0
29.94337558746338,2235,0.0,0.0,0.0
29.956966161727905,4095,0.0,0.0,0.0
29.967273950576782,2057,0.0,0.0,0.0
29.97527551651001,4095,0.0,0.0,0.0
29.98591637611389,2223,0.0,0.0,0.0
29.995965719223022,4095,0.0,0.0,0.0
29.998355627059937,2094,0.0,0.0,0.0
