Timestamp,EMG Value,massage_speed,massage_duration,relaxment_level
0.0009946823120117188,1456,0.0,30.0,0.0
0.011073589324951172,4095,0.0,30.0,0.0
0.021073579788208008,1878,0.0,30.0,0.0
0.031073570251464844,4095,0.0,30.0,0.0
0.0410923957824707,1368,0.0,30.0,0.0
0.04607748985290527,4095,0.0,30.0,0.0
0.05701589584350586,1296,0.0,30.0,0.0
0.06828999519348145,4095,0.0,30.0,0.0
0.0821990966796875,1179,0.0,30.0,0.0
0.09220671653747559,4095,0.0,30.0,0.0
0.10220670700073242,851,0.0,30.0,0.0
0.11220741271972656,4095,0.0,30.0,0.0
0.1222069263458252,634,0.0,30.0,0.0
0.13220691680908203,4095,0.0,30.0,0.0
0.14220738410949707,528,0.0,30.0,0.0
0.1522073745727539,4095,0.0,30.0,0.0
0.1522073745727539,541,0.0,30.0,0.0
0.16357922554016113,4095,0.0,30.0,0.0
0.17358708381652832,442,0.0,30.0,0.0
0.18358707427978516,4095,0.0,30.0,0.0
0.2010791301727295,354,0.0,30.0,0.0
0.21082782745361328,4095,0.0,30.0,0.0
0.2170393466949463,290,0.0,30.0,0.0
0.23181605339050293,4095,0.0,30.0,0.0
0.24080586433410645,218,0.0,30.0,0.0
0.24880671501159668,4095,0.0,30.0,0.0
0.26135897636413574,4095,0.0,30.0,0.0
0.26576876640319824,4095,0.0,30.0,0.0
0.27805256843566895,4095,0.0,30.0,0.0
0.28809595108032227,4095,0.0,30.0,0.0
0.298095703125,4095,0.0,30.0,0.0
0.30809497833251953,4095,0.0,30.0,0.0
0.31809520721435547,4095,0.0,30.0,0.0
0.3280951976776123,4095,0.0,30.0,0.0
0.34186220169067383,4095,0.0,30.0,0.0
0.35187745094299316,4095,0.0,30.0,0.0
0.36188554763793945,4095,0.0,30.0,0.0
0.37187862396240234,4095,0.0,30.0,0.0
0.38187623023986816,4095,0.0,30.0,0.0
0.3918769359588623,4095,0.0,30.0,0.0
0.40187668800354004,4095,0.0,30.0,0.0
0.41199159622192383,4095,0.0,30.0,0.0
0.416823148727417,4095,0.0,30.0,0.0
0.4319281578063965,4095,0.0,30.0,0.0
0.4416234493255615,4095,0.0,30.0,0.0
0.4518449306488037,4095,0.0,30.0,0.0
0.4598546028137207,4095,0.0,30.0,0.0
0.4661273956298828,4095,0.0,30.0,0.0
0.48162102699279785,4095,0.0,30.0,0.0
0.48266148567199707,4095,0.0,30.0,0.0
0.4936695098876953,4095,0.0,30.0,0.0
0.5036437511444092,4095,0.0,30.0,0.0
0.5136425495147705,4095,0.0,30.0,0.0
0.5236425399780273,4095,0.0,30.0,0.0
0.5336425304412842,4095,0.0,30.0,0.0
0.5450084209442139,4095,0.0,30.0,0.0
0.5618526935577393,4095,0.0,30.0,0.0
0.571871280670166,4095,0.0,30.0,0.0
0.5818650722503662,2803,0.0,30.0,0.0
0.5918645858764648,4095,0.0,30.0,0.0
0.6018645763397217,4095,0.0,30.0,0.0
0.6118824481964111,4095,0.0,30.0,0.0
0.6219913959503174,4095,0.0,30.0,0.0
0.631373405456543,4095,0.0,30.0,0.0
0.6377949714660645,4095,0.0,30.0,0.0
0.6513974666595459,4095,0.0,30.0,0.0
0.6594226360321045,4095,0.0,30.0,0.0
0.6667435169219971,4095,0.0,30.0,0.0
0.6815690994262695,4095,0.0,30.0,0.0
0.682565450668335,4095,0.0,30.0,0.0
0.6925954818725586,4095,0.0,30.0,0.0
0.7025766372680664,4095,0.0,30.0,0.0
0.7125768661499023,4095,0.0,30.0,0.0
0.722576379776001,4095,0.0,30.0,0.0
0.7325794696807861,4095,0.0,30.0,0.0
0.7425782680511475,4095,0.0,30.0,0.0
0.7525789737701416,4095,0.0,30.0,0.0
0.7625937461853027,4095,0.0,30.0,0.0
0.7794516086578369,4095,0.0,30.0,0.0
0.7918758392333984,4095,0.0,30.0,0.0
0.8019564151763916,4095,0.0,30.0,0.0
0.8119590282440186,4095,0.0,30.0,0.0
0.8219590187072754,4095,0.0,30.0,0.0
0.8320386409759521,4095,0.0,30.0,0.0
0.8420438766479492,4095,0.0,30.0,0.0
0.8515779972076416,4095,0.0,30.0,0.0
0.8596255779266357,4095,0.0,30.0,0.0
0.8656659126281738,4095,0.0,30.0,0.0
0.8816144466400146,4095,0.0,30.0,0.0
0.8834042549133301,4095,0.0,30.0,0.0
0.8934197425842285,4095,0.0,30.0,0.0
0.9034197330474854,4095,0.0,30.0,0.0
0.9134209156036377,4095,0.0,30.0,0.0
0.9234201908111572,4095,0.0,30.0,0.0
0.933419942855835,4095,0.0,30.0,0.0
0.9434208869934082,4095,0.0,30.0,0.0
0.9534199237823486,4095,0.0,30.0,0.0
0.9634208679199219,4095,0.0,30.0,0.0
0.9734199047088623,4095,0.0,30.0,0.0
0.9834210872650146,4095,0.0,30.0,0.0
0.993419885635376,4095,0.0,30.0,0.0
1.0111463069915771,4095,0.0,30.0,0.0
1.0211286544799805,4095,0.0,30.0,0.0
1.0311591625213623,4095,0.0,30.0,0.0
1.0412046909332275,4095,0.0,30.0,0.0
1.0517888069152832,4095,0.0,30.0,0.0
1.0581631660461426,4095,0.0,30.0,0.0
1.0720345973968506,4095,0.0,30.0,0.0
1.0813071727752686,4095,0.0,30.0,0.0
1.0914218425750732,4095,0.0,30.0,0.0
1.0993149280548096,4095,0.0,30.0,0.0
1.107330083847046,4095,0.0,30.0,0.0
1.1153790950775146,4095,0.0,30.0,0.0
1.1263620853424072,4095,0.0,30.0,0.0
1.1396644115447998,4095,0.0,30.0,0.0
1.151519775390625,4095,0.0,30.0,0.0
1.1599783897399902,4095,0.0,30.0,0.0
1.1677134037017822,4095,0.0,30.0,0.0
1.1753382682800293,4095,0.0,30.0,0.0
1.191514492034912,4095,0.0,30.0,0.0
1.1988449096679688,4095,0.0,30.0,0.0
1.207336664199829,4095,0.0,30.0,0.0
1.2212774753570557,4095,0.0,30.0,0.0
1.2313413619995117,4095,0.0,30.0,0.0
1.2376630306243896,4095,0.0,30.0,0.0
1.2517783641815186,4095,0.0,30.0,0.0
1.2620306015014648,4095,0.0,30.0,0.0
1.2720379829406738,4095,0.0,30.0,0.0
1.2814841270446777,4095,0.0,30.0,0.0
1.2916278839111328,4095,0.0,30.0,0.0
1.3018951416015625,4095,0.0,30.0,0.0
1.3124217987060547,4095,0.0,30.0,0.0
1.3223087787628174,4095,0.0,30.0,0.0
1.331937313079834,4095,0.0,30.0,0.0
1.3376035690307617,4095,0.0,30.0,0.0
1.352057933807373,4095,0.0,30.0,0.0
1.3604915142059326,4095,0.0,30.0,0.0
1.368314504623413,4095,0.0,30.0,0.0
1.381831169128418,4095,0.0,30.0,0.0
1.3911798000335693,4095,0.0,30.0,0.0
1.3980815410614014,4095,0.0,30.0,0.0
1.412428379058838,4095,0.0,30.0,0.0
1.420952558517456,4095,0.0,30.0,0.0
1.4315400123596191,4095,0.0,30.0,0.0
1.4372172355651855,4095,0.0,30.0,0.0
1.4519269466400146,4095,0.0,30.0,0.0
1.4614324569702148,4095,0.0,30.0,0.0
1.4718966484069824,4095,0.0,30.0,0.0
1.4815678596496582,4095,0.0,30.0,0.0
1.4899327754974365,4095,0.0,30.0,0.0
1.4993746280670166,4095,0.0,30.0,0.0
1.5124473571777344,4095,0.0,30.0,0.0
1.5206184387207031,4095,0.0,30.0,0.0
1.5258848667144775,4095,0.0,30.0,0.0
1.5419418811798096,4095,0.0,30.0,0.0
1.551210641860962,4095,0.0,30.0,0.0
1.5595288276672363,4095,0.0,30.0,0.0
1.5699608325958252,4095,0.0,30.0,0.0
1.581615924835205,4095,0.0,30.0,0.0
1.5920414924621582,4095,0.0,30.0,0.0
1.6020474433898926,782,0.0,30.0,0.0
1.612288236618042,2377,0.0,30.0,0.0
1.6132855415344238,4095,0.0,30.0,0.0
1.6233336925506592,2975,0.0,30.0,0.0
1.6352219581604004,4095,0.0,30.0,0.0
1.6510908603668213,4095,0.0,30.0,0.0
1.6622538566589355,4095,0.0,30.0,0.0
1.6672568321228027,4095,0.0,30.0,0.0
1.6816740036010742,4095,0.0,30.0,0.0
1.690971851348877,4095,0.0,30.0,0.0
1.6990556716918945,4095,0.0,30.0,0.0
1.7124474048614502,4095,0.0,30.0,0.0
1.7219412326812744,4095,0.0,30.0,0.0
1.7284953594207764,4095,0.0,30.0,0.0
1.7370567321777344,4095,0.0,30.0,0.0
1.7518258094787598,4095,0.0,30.0,0.0
1.759232759475708,4095,0.0,30.0,0.0
1.7671024799346924,4095,0.0,30.0,0.0
1.782099723815918,4095,0.0,30.0,0.0
1.7907257080078125,4095,0.0,30.0,0.0
1.801928997039795,4095,0.0,30.0,0.0
1.8121206760406494,4095,0.0,30.0,0.0
1.8211815357208252,4095,0.0,30.0,0.0
1.8321726322174072,4061,0.0,30.0,0.0
1.8415327072143555,4095,0.0,30.0,0.0
1.8517541885375977,3971,0.0,30.0,0.0
1.858757495880127,4095,0.0,30.0,0.0
1.8714573383331299,3751,0.0,30.0,0.0
1.8814454078674316,4095,0.0,30.0,0.0
1.8902826309204102,3568,0.0,30.0,0.0
1.9017255306243896,4095,0.0,30.0,0.0
1.9120500087738037,3339,0.0,30.0,0.0
1.9212493896484375,4095,0.0,30.0,0.0
1.9314641952514648,3134,0.0,30.0,0.0
1.9423060417175293,4095,0.0,30.0,0.0
1.95194673538208,2985,0.0,30.0,0.0
1.9601831436157227,4095,0.0,30.0,0.0
1.9716792106628418,2943,0.0,30.0,0.0
1.9815571308135986,4095,0.0,30.0,0.0
1.991842269897461,2806,0.0,30.0,0.0
2.001383066177368,4095,0.0,30.0,0.0
2.0102407932281494,2690,0.0,30.0,0.0
2.0218677520751953,4095,0.0,30.0,0.0
2.0315377712249756,2883,0.0,30.0,0.0
2.0418241024017334,4095,0.0,30.0,0.0
2.0511527061462402,4095,0.0,30.0,0.0
2.058084726333618,4095,0.0,30.0,0.0
2.071716070175171,4095,0.0,30.0,0.0
2.081580638885498,4095,0.0,30.0,0.0
2.0917470455169678,4095,0.0,30.0,0.0
2.1022748947143555,4095,0.0,30.0,0.0
2.112333297729492,4095,0.0,30.0,0.0
2.121887683868408,4095,0.0,30.0,0.0
2.1313540935516357,4095,0.0,30.0,0.0
2.1419339179992676,4095,0.0,30.0,0.0
2.152055501937866,4095,0.0,30.0,0.0
2.1586668491363525,4095,0.0,30.0,0.0
2.1715800762176514,3991,0.0,30.0,0.0
2.182497024536133,4095,0.0,30.0,0.0
2.1913232803344727,4095,0.0,30.0,0.0
2.202169179916382,4095,0.0,30.0,0.0
2.211141586303711,4095,0.0,30.0,0.0
2.221362590789795,4095,0.0,30.0,0.0
2.2315564155578613,4095,0.0,30.0,0.0
2.2417476177215576,4095,0.0,30.0,0.0
2.2515859603881836,4095,0.0,30.0,0.0
2.2582919597625732,4095,0.0,30.0,0.0
2.271463632583618,3414,0.0,30.0,0.0
2.2820184230804443,4095,0.0,30.0,0.0
2.291611909866333,3343,0.0,30.0,0.0
2.3017561435699463,4095,0.0,30.0,0.0
2.3119099140167236,3386,0.0,30.0,0.0
2.3213741779327393,4095,0.0,30.0,0.0
2.3314483165740967,3066,0.0,30.0,0.0
2.3409221172332764,4095,0.0,30.0,0.0
2.351686477661133,1389,0.0,30.0,0.0
2.358377695083618,4095,0.0,30.0,0.0
2.3713343143463135,1511,0.0,30.0,0.0
2.381514072418213,4095,0.0,30.0,0.0
2.3900184631347656,1502,0.0,30.0,0.0
2.402073860168457,4095,0.0,30.0,0.0
2.411594867706299,1533,0.0,30.0,0.0
2.422091007232666,4095,0.0,30.0,0.0
2.431544065475464,1633,0.0,30.0,0.0
2.4418883323669434,4095,0.0,30.0,0.0
2.4513280391693115,1582,0.0,30.0,0.0
2.4585824012756348,4095,0.0,30.0,0.0
2.4719455242156982,1443,0.0,30.0,0.0
2.48183012008667,4095,0.0,30.0,0.0
2.4885642528533936,1661,0.0,30.0,0.0
2.502016305923462,2914,0.0,30.0,0.0
2.511075735092163,1551,0.0,30.0,0.0
2.5215046405792236,3853,0.0,30.0,0.0
2.532334804534912,1294,0.0,30.0,0.0
2.541626453399658,4095,0.0,30.0,0.0
2.5523784160614014,1129,0.0,30.0,0.0
2.562152862548828,4095,0.0,30.0,0.0
2.5721113681793213,1010,0.0,30.0,0.0
2.581486701965332,4095,0.0,30.0,0.0
2.5919015407562256,980,0.0,30.0,0.0
2.6021664142608643,3999,0.0,30.0,0.0
2.6117658615112305,978,0.0,30.0,0.0
2.621659755706787,4095,0.0,30.0,0.0
2.63128399848938,980,0.0,30.0,0.0
2.6401925086975098,4095,0.0,30.0,0.0
2.6514599323272705,1008,0.0,30.0,0.0
2.656155586242676,4095,0.0,30.0,0.0
2.671459674835205,1007,0.0,30.0,0.0
2.6811063289642334,3633,0.0,30.0,0.0
2.691707134246826,1143,0.0,30.0,0.0
2.7021498680114746,3499,0.0,30.0,0.0
2.711256742477417,976,0.0,30.0,0.0
2.7177858352661133,3249,0.0,30.0,0.0
2.732205867767334,961,0.0,30.0,0.0
2.741863965988159,3104,0.0,30.0,0.0
2.751091957092285,912,0.0,30.0,0.0
2.7606618404388428,3691,0.0,30.0,0.0
2.772162675857544,4095,0.0,30.0,0.0
2.7814598083496094,4095,0.0,30.0,0.0
2.791414499282837,4095,0.0,30.0,0.0
2.802049398422241,4095,0.0,30.0,0.0
2.811389684677124,880,0.0,30.0,0.0
2.821601390838623,4095,0.0,30.0,0.0
2.832590103149414,170,0.0,30.0,0.0
2.841965675354004,4095,0.0,30.0,0.0
2.8500053882598877,250,0.0,30.0,0.0
2.858022689819336,4095,0.0,30.0,0.0
2.865828037261963,288,0.0,30.0,0.0
2.8820347785949707,4095,0.0,30.0,0.0
2.891047716140747,293,0.0,30.0,0.0
2.901777744293213,4095,0.0,30.0,0.0
2.911059617996216,295,0.0,30.0,0.0
2.917001724243164,4095,0.0,30.0,0.0
2.9317283630371094,317,0.0,30.0,0.0
2.9423751831054688,4095,0.0,30.0,0.0
2.9515860080718994,258,0.0,30.0,0.0
2.9617602825164795,4095,0.0,30.0,0.0
2.971513032913208,395,0.0,30.0,0.0
2.981801748275757,4095,0.0,30.0,0.0
2.9913744926452637,582,0.0,30.0,0.0
3.0014328956604004,3901,0.0,30.0,0.0
3.006016254425049,542,0.0,30.0,0.0
3.021263837814331,3293,0.0,30.0,0.0
3.03135347366333,547,0.0,30.0,0.0
3.0406312942504883,4095,0.0,30.0,0.0
3.0496129989624023,1589,0.0,30.0,0.0
3.057621717453003,4095,0.0,30.0,0.0
3.0665318965911865,4095,0.0,30.0,0.0
3.082012414932251,4095,0.0,30.0,0.0
3.0926003456115723,4095,0.0,30.0,0.0
3.1015920639038086,4095,0.0,30.0,0.0
3.110659122467041,4095,0.0,30.0,0.0
3.117283821105957,4095,0.0,30.0,0.0
3.131669521331787,4095,0.0,30.0,0.0
3.1398704051971436,4095,0.0,30.0,0.0
3.1514477729797363,3679,0.0,30.0,0.0
3.156046152114868,4095,0.0,30.0,0.0
3.171384811401367,592,0.0,30.0,0.0
3.1812455654144287,1049,0.0,30.0,0.0
3.19059157371521,415,0.0,30.0,0.0
3.2017788887023926,737,0.0,30.0,0.0
3.2097649574279785,405,0.0,30.0,0.0
3.221485137939453,347,0.0,30.0,0.0
3.231403350830078,383,0.0,30.0,0.0
3.2405571937561035,339,0.0,30.0,0.0
3.249556303024292,368,0.0,30.0,0.0
3.2575836181640625,286,0.0,30.0,0.0
3.271247148513794,295,0.0,30.0,0.0
3.282090902328491,102,0.0,30.0,0.0
3.285583257675171,205,0.0,30.0,0.0
3.3007614612579346,36,0.0,30.0,0.0
3.3100335597991943,128,0.0,30.0,0.0
3.3162310123443604,0,0.0,30.0,0.0
3.3317041397094727,109,0.0,30.0,0.0
3.3386969566345215,0,0.0,30.0,0.0
3.348801612854004,229,0.0,30.0,0.0
3.361238479614258,0,0.0,30.0,0.0
3.3720970153808594,283,0.0,30.0,0.0
3.3811216354370117,206,0.0,30.0,0.0
3.39212965965271,130,0.0,30.0,0.0
3.4014976024627686,395,0.0,30.0,0.0
3.412102699279785,0,0.0,30.0,0.0
3.422029733657837,283,0.0,30.0,0.0
3.4311294555664062,78,0.0,30.0,0.0
3.439311981201172,288,0.0,30.0,0.0
3.451728105545044,110,0.0,30.0,0.0
3.456247568130493,400,0.0,30.0,0.0
3.4713551998138428,116,0.0,30.0,0.0
3.4818241596221924,615,0.0,30.0,0.0
3.484952926635742,112,0.0,30.0,0.0
3.5010170936584473,1234,0.0,30.0,0.0
3.5103204250335693,4095,0.0,30.0,0.0
3.5159590244293213,4095,0.0,30.0,0.0
3.5316710472106934,1805,0.0,30.0,0.0
3.5399258136749268,1845,0.0,30.0,0.0
3.5499372482299805,3610,0.0,30.0,0.0
3.562096118927002,607,0.0,30.0,0.0
3.5715739727020264,4095,0.0,30.0,0.0
3.5814359188079834,3011,0.0,30.0,0.0
3.591958999633789,4095,0.0,30.0,0.0
3.601574659347534,1815,0.0,30.0,0.0
3.611482858657837,3904,0.0,30.0,0.0
3.6212735176086426,1959,0.0,30.0,0.0
3.6312568187713623,3317,0.0,30.0,0.0
3.6415579319000244,2064,0.0,30.0,0.0
3.6516740322113037,1200,0.0,30.0,0.0
3.661539316177368,2014,0.0,30.0,0.0
3.6650571823120117,0,0.0,30.0,0.0
3.681697130203247,1856,0.0,30.0,0.0
3.684689998626709,0,0.0,30.0,0.0
3.701702356338501,1728,0.0,30.0,0.0
3.7097127437591553,0,0.0,30.0,0.0
3.7157554626464844,1744,0.0,30.0,0.0
3.7315454483032227,0,0.0,30.0,0.0
3.7405314445495605,1785,0.0,30.0,0.0
3.7510478496551514,0,0.0,30.0,0.0
3.762385368347168,4095,0.0,30.0,0.0
3.7655017375946045,1691,0.0,30.0,0.0
3.781811475753784,4095,0.0,30.0,0.0
3.792018413543701,1121,0.0,30.0,0.0
3.8001551628112793,4095,0.0,30.0,0.0
3.809239625930786,935,0.0,30.0,0.0
3.8219969272613525,4095,0.0,30.0,0.0
3.8315889835357666,850,0.0,30.0,0.0
3.8419618606567383,4095,0.0,30.0,0.0
3.8491411209106445,702,0.0,30.0,0.0
3.860330820083618,4095,0.0,30.0,0.0
3.868757486343384,560,0.0,30.0,0.0
3.8815696239471436,4095,0.0,30.0,0.0
3.892268419265747,459,0.0,30.0,0.0
3.9021413326263428,4095,0.0,30.0,0.0
3.910146474838257,395,0.0,30.0,0.0
3.9218225479125977,4095,0.0,30.0,0.0
3.931863307952881,377,0.0,30.0,0.0
3.9423224925994873,4095,0.0,30.0,0.0
3.952383279800415,400,0.0,30.0,0.0
3.961735486984253,4095,0.0,30.0,0.0
3.968539237976074,1955,0.0,30.0,0.0
3.9817187786102295,1535,0.0,30.0,0.0
3.992405891418457,0,0.0,30.0,0.0
4.001500844955444,1232,0.0,30.0,0.0
4.011892080307007,0,0.0,30.0,0.0
4.021536350250244,902,0.0,30.0,0.0
4.032055616378784,0,0.0,30.0,0.0
4.041155576705933,744,0.0,30.0,0.0
4.05228328704834,0,0.0,30.0,0.0
4.053287506103516,622,0.0,30.0,0.0
4.072256803512573,813,0.0,30.0,0.0
4.081761598587036,4095,0.0,30.0,0.0
4.082752227783203,1920,0.0,30.0,0.0
4.100170850753784,4095,0.0,30.0,0.0
4.108136415481567,1401,0.0,30.0,0.0
4.116083145141602,4095,0.0,30.0,0.0
4.131682395935059,611,0.0,30.0,0.0
4.132676839828491,4095,0.0,30.0,0.0
4.149427175521851,218,0.0,30.0,0.0
4.161898374557495,4095,0.0,30.0,0.0
4.1682727336883545,55,0.0,30.0,0.0
4.181973218917847,4095,0.0,30.0,0.0
4.183967351913452,0,0.0,30.0,0.0
4.199429512023926,4095,0.0,30.0,0.0
4.211742162704468,0,0.0,30.0,0.0
4.2220778465271,4095,0.0,30.0,0.0
4.2318384647369385,542,0.0,30.0,0.0
4.2421348094940186,4095,0.0,30.0,0.0
4.248279809951782,0,0.0,30.0,0.0
4.256914854049683,4095,0.0,30.0,0.0
4.266109228134155,0,0.0,30.0,0.0
4.2817254066467285,4095,0.0,30.0,0.0
4.282715559005737,2209,0.0,30.0,0.0
4.2983715534210205,4095,0.0,30.0,0.0
4.3083765506744385,2101,0.0,30.0,0.0
4.315790176391602,4095,0.0,30.0,0.0
4.331625699996948,2062,0.0,30.0,0.0
4.342055559158325,4095,0.0,30.0,0.0
4.349365711212158,2123,0.0,30.0,0.0
4.361237049102783,4095,0.0,30.0,0.0
4.368152618408203,2177,0.0,30.0,0.0
4.38170862197876,4095,0.0,30.0,0.0
4.3921051025390625,2185,0.0,30.0,0.0
4.399343252182007,4095,0.0,30.0,0.0
4.408405065536499,2192,0.0,30.0,0.0
4.421604871749878,4095,0.0,30.0,0.0
4.431871175765991,2210,0.0,30.0,0.0
4.440486192703247,4095,0.0,30.0,0.0
4.4524827003479,2256,0.0,30.0,0.0
4.460984230041504,4095,0.0,30.0,0.0
4.468256711959839,1338,0.0,30.0,0.0
4.4815263748168945,4095,0.0,30.0,0.0
4.491783618927002,1040,0.0,30.0,0.0
4.502018451690674,4095,0.0,30.0,0.0
4.511117219924927,818,0.0,30.0,0.0
4.521765470504761,4095,0.0,30.0,0.0
4.531944990158081,727,0.0,30.0,0.0
4.541370153427124,4095,0.0,30.0,0.0
4.5516273975372314,592,0.0,30.0,0.0
4.562039613723755,4095,0.0,30.0,0.0
4.571272134780884,527,0.0,30.0,0.0
4.582077264785767,4095,0.0,30.0,0.0
4.59162163734436,521,0.0,30.0,0.0
4.5979838371276855,4095,0.0,30.0,0.0
4.606957912445068,464,0.0,30.0,0.0
4.614629030227661,4095,0.0,30.0,0.0
4.6316750049591064,389,0.0,30.0,0.0
4.642024040222168,4095,0.0,30.0,0.0
4.651962757110596,368,0.0,30.0,0.0
4.659968376159668,4095,0.0,30.0,0.0
4.667670726776123,320,0.0,30.0,0.0
4.681372880935669,4095,0.0,30.0,0.0
4.682368516921997,610,0.0,30.0,0.0
4.698335886001587,4095,0.0,30.0,0.0
4.712129592895508,4095,0.0,30.0,0.0
4.7149598598480225,4095,0.0,30.0,0.0
4.731677055358887,4095,0.0,30.0,0.0
4.732668876647949,4095,0.0,30.0,0.0
4.7514708042144775,4095,0.0,30.0,0.0
4.76163387298584,4095,0.0,30.0,0.0
4.766999959945679,4095,0.0,30.0,0.0
4.781916618347168,4095,0.0,30.0,0.0
4.782698154449463,4095,0.0,30.0,0.0
4.798325300216675,4095,0.0,30.0,0.0
4.812014818191528,4095,0.0,30.0,0.0
4.814940929412842,4095,0.0,30.0,0.0
4.831615686416626,4095,0.0,30.0,0.0
4.832603693008423,4095,0.0,30.0,0.0
4.851573467254639,4095,0.0,30.0,0.0
4.859206914901733,4095,0.0,30.0,0.0
4.866682767868042,4095,0.0,30.0,0.0
4.881767511367798,4095,0.0,30.0,0.0
4.891915798187256,4095,0.0,30.0,0.0
4.899250030517578,4095,0.0,30.0,0.0
4.9059388637542725,4095,0.0,30.0,0.0
4.921465158462524,4095,0.0,30.0,0.0
4.931728839874268,4095,0.0,30.0,0.0
4.9325854778289795,4095,0.0,30.0,0.0
4.952270746231079,4095,0.0,30.0,0.0
4.953028917312622,4095,0.0,30.0,0.0
4.968793630599976,4095,0.0,30.0,0.0
4.9816203117370605,4095,0.0,30.0,0.0
4.983614921569824,4095,0.0,30.0,0.0
5.000690698623657,4095,0.0,30.0,0.0
5.005994081497192,4095,0.0,30.0,0.0
5.0221991539001465,4095,0.0,30.0,0.0
5.031236410140991,4095,0.0,30.0,0.0
5.039584398269653,4095,0.0,30.0,0.0
5.051818370819092,2384,0.0,30.0,0.0
5.062042951583862,4095,0.0,30.0,0.0
5.06664776802063,4095,0.0,30.0,0.0
5.082565546035767,4095,0.0,30.0,0.0
5.082565546035767,1959,0.0,30.0,0.0
5.0982301235198975,4095,0.0,30.0,0.0
5.111295223236084,508,0.0,30.0,0.0
5.1215949058532715,4095,0.0,30.0,0.0
5.132270336151123,4095,0.0,30.0,0.0
5.142007827758789,4095,0.0,30.0,0.0
5.15114688873291,4095,0.0,30.0,0.0
5.158365488052368,4095,0.0,30.0,0.0
5.171762466430664,4095,0.0,30.0,0.0
5.182535171508789,4095,0.0,30.0,0.0
5.189608573913574,4095,0.0,30.0,0.0
5.201178312301636,4095,0.0,30.0,0.0
5.206370830535889,4095,0.0,30.0,0.0
5.2218122482299805,4095,0.0,30.0,0.0
5.231801748275757,4095,0.0,30.0,0.0
5.242018222808838,4095,0.0,30.0,0.0
5.251147270202637,4095,0.0,30.0,0.0
5.2616002559661865,4095,0.0,30.0,0.0
5.2719972133636475,4095,0.0,30.0,0.0
5.281699180603027,4095,0.0,30.0,0.0
5.288527250289917,4095,0.0,30.0,0.0
5.30128026008606,4095,0.0,30.0,0.0
5.311426162719727,4095,0.0,30.0,0.0
5.321829319000244,4095,0.0,30.0,0.0
5.3312578201293945,4095,0.0,30.0,0.0
5.338290214538574,4095,0.0,30.0,0.0
5.3520331382751465,4095,0.0,30.0,0.0
5.360807180404663,4095,0.0,30.0,0.0
5.367335557937622,4095,0.0,30.0,0.0
5.381601572036743,4095,0.0,30.0,0.0
5.3919148445129395,4095,0.0,30.0,0.0
5.401816129684448,4095,0.0,30.0,0.0
5.407494306564331,4095,0.0,30.0,0.0
5.422006607055664,4095,0.0,30.0,0.0
5.4313013553619385,4095,0.0,30.0,0.0
5.441350221633911,4095,0.0,30.0,0.0
5.452038526535034,4095,0.0,30.0,0.0
5.4574971199035645,4095,0.0,30.0,0.0
5.472043752670288,4095,0.0,30.0,0.0
5.481734037399292,4095,0.0,30.0,0.0
5.491442918777466,4095,0.0,30.0,0.0
5.501256704330444,4095,0.0,30.0,0.0
5.504945993423462,4095,0.0,30.0,0.0
5.521876573562622,4095,0.0,30.0,0.0
5.5316808223724365,4095,0.0,30.0,0.0
5.541993618011475,4095,0.0,30.0,0.0
5.5511322021484375,4095,0.0,30.0,0.0
5.5584306716918945,4095,0.0,30.0,0.0
5.571259021759033,4095,0.0,30.0,0.0
5.581918954849243,4095,0.0,30.0,0.0
5.589050054550171,4095,0.0,30.0,0.0
5.60188889503479,4095,0.0,30.0,0.0
5.606149196624756,4095,0.0,30.0,0.0
5.622102499008179,4095,0.0,30.0,0.0
5.631768226623535,4095,0.0,30.0,0.0
5.6364617347717285,4095,0.0,30.0,0.0
5.6520631313323975,4095,0.0,30.0,0.0
5.658079624176025,4095,0.0,30.0,0.0
5.67180871963501,4095,0.0,30.0,0.0
5.681450366973877,4095,0.0,30.0,0.0
5.691070079803467,4095,0.0,30.0,0.0
5.701658725738525,4095,0.0,30.0,0.0
5.712098836898804,4095,0.0,30.0,0.0
5.722147226333618,4095,0.0,30.0,0.0
5.731111288070679,4095,0.0,30.0,0.0
5.741673946380615,4095,0.0,30.0,0.0
5.75171971321106,4095,0.0,30.0,0.0
5.756887197494507,4095,0.0,30.0,0.0
5.771960020065308,4095,0.0,30.0,0.0
5.782020330429077,4095,0.0,30.0,0.0
5.790025234222412,4095,0.0,30.0,0.0
5.802078008651733,4095,0.0,30.0,0.0
5.805699348449707,4095,0.0,30.0,0.0
5.821813344955444,4095,0.0,30.0,0.0
5.831975936889648,4095,0.0,30.0,0.0
5.841200590133667,4095,0.0,30.0,0.0
5.851239204406738,4095,0.0,30.0,0.0
5.857652425765991,4095,0.0,30.0,0.0
5.871944904327393,4095,0.0,30.0,0.0
5.881691932678223,4095,0.0,30.0,0.0
5.89152717590332,4095,0.0,30.0,0.0
5.901663780212402,4095,0.0,30.0,0.0
5.912335634231567,4095,0.0,30.0,0.0
5.922123908996582,4095,0.0,30.0,0.0
5.931480884552002,4095,0.0,30.0,0.0
5.941039323806763,4095,0.0,30.0,0.0
5.951727628707886,4095,0.0,30.0,0.0
5.957162141799927,4095,0.0,30.0,0.0
5.972161293029785,4095,0.0,30.0,0.0
5.981265068054199,4095,0.0,30.0,0.0
5.991103649139404,4095,0.0,30.0,0.0
6.001016855239868,4095,0.0,30.0,0.0
6.01144552230835,4095,0.0,30.0,0.0
6.022284507751465,4095,0.0,30.0,0.0
6.031188011169434,4095,0.0,30.0,0.0
6.042148590087891,4095,0.0,30.0,0.0
6.051973104476929,4095,0.0,30.0,0.0
6.0584330558776855,4095,0.0,30.0,0.0
6.072201728820801,4095,0.0,30.0,0.0
6.0820817947387695,4095,0.0,30.0,0.0
6.088970899581909,4095,0.0,30.0,0.0
6.101967811584473,3989,0.0,30.0,0.0
6.111284494400024,4095,0.0,30.0,0.0
6.121129512786865,3799,0.0,30.0,0.0
6.131617784500122,4095,0.0,30.0,0.0
6.142049789428711,3794,0.0,30.0,0.0
6.15188193321228,4095,0.0,30.0,0.0
6.1564648151397705,3664,0.0,30.0,0.0
6.171739816665649,4095,0.0,30.0,0.0
6.181531190872192,3679,0.0,30.0,0.0
6.1898698806762695,4095,0.0,30.0,0.0
6.20130181312561,3686,0.0,30.0,0.0
6.204096078872681,4095,0.0,30.0,0.0
6.221681833267212,4095,0.0,30.0,0.0
6.231997013092041,4095,0.0,30.0,0.0
6.239689588546753,3657,0.0,30.0,0.0
6.2511701583862305,4095,0.0,30.0,0.0
6.257427215576172,3597,0.0,30.0,0.0
6.271653652191162,4095,0.0,30.0,0.0
6.281192779541016,3397,0.0,30.0,0.0
6.291248798370361,4095,0.0,30.0,0.0
6.3014233112335205,3227,0.0,30.0,0.0
6.312085390090942,4095,0.0,30.0,0.0
6.321595191955566,3123,0.0,30.0,0.0
6.3317413330078125,4095,0.0,30.0,0.0
6.342207193374634,2910,0.0,30.0,0.0
6.351210594177246,4095,0.0,30.0,0.0
6.357501745223999,2836,0.0,30.0,0.0
6.37211537361145,4095,0.0,30.0,0.0
6.381577491760254,2718,0.0,30.0,0.0
6.390356063842773,4095,0.0,30.0,0.0
6.402244329452515,2683,0.0,30.0,0.0
6.411531925201416,4095,0.0,30.0,0.0
6.418108701705933,2617,0.0,30.0,0.0
6.431559085845947,4095,0.0,30.0,0.0
6.4399707317352295,2530,0.0,30.0,0.0
6.451516389846802,4095,0.0,30.0,0.0
6.454071760177612,4095,0.0,30.0,0.0
6.4711387157440186,4095,0.0,30.0,0.0
6.4813172817230225,4095,0.0,30.0,0.0
6.48908805847168,4095,0.0,30.0,0.0
6.501540899276733,1527,0.0,30.0,0.0
6.5105602741241455,4095,0.0,30.0,0.0
6.516767263412476,2125,0.0,30.0,0.0
6.531372547149658,4095,0.0,30.0,0.0
6.540972948074341,2926,0.0,30.0,0.0
6.551830768585205,4095,0.0,30.0,0.0
6.5618062019348145,2402,0.0,30.0,0.0
6.571774005889893,4095,0.0,30.0,0.0
6.581528186798096,2448,0.0,30.0,0.0
6.5925493240356445,4095,0.0,30.0,0.0
6.602347373962402,2373,0.0,30.0,0.0
6.611515998840332,4095,0.0,30.0,0.0
6.621784210205078,1993,0.0,30.0,0.0
6.63184118270874,4095,0.0,30.0,0.0
6.6416847705841064,1845,0.0,30.0,0.0
6.65207839012146,4095,0.0,30.0,0.0
6.660104513168335,1904,0.0,30.0,0.0
6.666982650756836,4095,0.0,30.0,0.0
6.681933164596558,1968,0.0,30.0,0.0
6.691029071807861,3511,0.0,30.0,0.0
6.697681188583374,2015,0.0,30.0,0.0
6.709912538528442,2983,0.0,30.0,0.0
6.717928171157837,2062,0.0,30.0,0.0
6.731088638305664,2642,0.0,30.0,0.0
6.741660118103027,2082,0.0,30.0,0.0
6.751695871353149,2391,0.0,30.0,0.0
6.761572599411011,2074,0.0,30.0,0.0
6.771593809127808,2145,0.0,30.0,0.0
6.781229019165039,2007,0.0,30.0,0.0
6.788813829421997,1955,0.0,30.0,0.0
6.801080703735352,1877,0.0,30.0,0.0
6.808372974395752,1703,0.0,30.0,0.0
6.821456670761108,1698,0.0,30.0,0.0
6.831258058547974,1366,0.0,30.0,0.0
6.838842153549194,1469,0.0,30.0,0.0
6.851218938827515,849,0.0,30.0,0.0
6.8622376918792725,1339,0.0,30.0,0.0
6.8697497844696045,461,0.0,30.0,0.0
6.882208824157715,1229,0.0,30.0,0.0
6.890213966369629,545,0.0,30.0,0.0
6.90187931060791,880,0.0,30.0,0.0
6.911457061767578,1827,0.0,30.0,0.0
6.922489881515503,848,0.0,30.0,0.0
6.932008504867554,2543,0.0,30.0,0.0
6.941519737243652,975,0.0,30.0,0.0
6.950068235397339,1759,0.0,30.0,0.0
6.961255073547363,1214,0.0,30.0,0.0
6.971894025802612,1520,0.0,30.0,0.0
6.981917381286621,1276,0.0,30.0,0.0
6.9921956062316895,1786,0.0,30.0,0.0
7.001718521118164,1283,0.0,30.0,0.0
7.007884740829468,2137,0.0,30.0,0.0
7.0218284130096436,1267,0.0,30.0,0.0
7.031508684158325,2608,0.0,30.0,0.0
7.042009592056274,1233,0.0,30.0,0.0
7.0520172119140625,3507,0.0,30.0,0.0
7.062028408050537,1266,0.0,30.0,0.0
7.072277545928955,3511,0.0,30.0,0.0
7.082076549530029,1219,0.0,30.0,0.0
7.085189342498779,4095,0.0,30.0,0.0
7.101398229598999,1168,0.0,30.0,0.0
7.110183000564575,4095,0.0,30.0,0.0
7.116808176040649,1157,0.0,30.0,0.0
7.1319756507873535,4095,0.0,30.0,0.0
7.141263961791992,1129,0.0,30.0,0.0
7.152085542678833,4095,0.0,30.0,0.0
7.161754846572876,1088,0.0,30.0,0.0
7.171995639801025,4095,0.0,30.0,0.0
7.181111097335815,1059,0.0,30.0,0.0
7.19127631187439,4095,0.0,30.0,0.0
7.202063083648682,4095,0.0,30.0,0.0
7.212184906005859,4095,0.0,30.0,0.0
7.22213339805603,2220,0.0,30.0,0.0
7.231972932815552,2950,0.0,30.0,0.0
7.240894556045532,4095,0.0,30.0,0.0
7.249343633651733,4095,0.0,30.0,0.0
7.262003183364868,4095,0.0,30.0,0.0
7.2651472091674805,4095,0.0,30.0,0.0
7.282019376754761,4095,0.0,30.0,0.0
7.291317701339722,4095,0.0,30.0,0.0
7.2996697425842285,4095,0.0,30.0,0.0
7.307697296142578,4095,0.0,30.0,0.0
7.3222432136535645,2825,0.0,30.0,0.0
7.331782341003418,4095,0.0,30.0,0.0
7.340812683105469,710,0.0,30.0,0.0
7.352406024932861,4095,0.0,30.0,0.0
7.361866235733032,553,0.0,30.0,0.0
7.364349842071533,4095,0.0,30.0,0.0
7.382223844528198,368,0.0,30.0,0.0
7.3844523429870605,4095,0.0,30.0,0.0
7.400582551956177,497,0.0,30.0,0.0
7.411893844604492,4095,0.0,30.0,0.0
7.419558525085449,615,0.0,30.0,0.0
7.431364297866821,4095,0.0,30.0,0.0
7.439379692077637,714,0.0,30.0,0.0
7.449740171432495,3840,0.0,30.0,0.0
7.461745977401733,624,0.0,30.0,0.0
7.470479965209961,3067,0.0,30.0,0.0
7.4819982051849365,472,0.0,30.0,0.0
7.492210149765015,2928,0.0,30.0,0.0
7.501871109008789,253,0.0,30.0,0.0
7.507958889007568,2405,0.0,30.0,0.0
7.5163047313690186,237,0.0,30.0,0.0
7.5316479206085205,2263,0.0,30.0,0.0
7.534642457962036,209,0.0,30.0,0.0
7.552055597305298,2368,0.0,30.0,0.0
7.553052186965942,237,0.0,30.0,0.0
7.568026542663574,2183,0.0,30.0,0.0
7.581495523452759,235,0.0,30.0,0.0
7.58443021774292,1854,0.0,30.0,0.0
7.600828647613525,229,0.0,30.0,0.0
7.605621337890625,1774,0.0,30.0,0.0
7.6217546463012695,204,0.0,30.0,0.0
7.631730318069458,1630,0.0,30.0,0.0
7.636477470397949,167,0.0,30.0,0.0
7.652166128158569,1586,0.0,30.0,0.0
7.6531617641448975,169,0.0,30.0,0.0
7.666553974151611,1486,0.0,30.0,0.0
7.68144416809082,189,0.0,30.0,0.0
7.6834752559661865,1555,0.0,30.0,0.0
7.70184588432312,197,0.0,30.0,0.0
7.711947679519653,1715,0.0,30.0,0.0
7.717087507247925,233,0.0,30.0,0.0
7.731281995773315,2448,0.0,30.0,0.0
7.733278274536133,229,0.0,30.0,0.0
7.751847743988037,2711,0.0,30.0,0.0
7.761916637420654,179,0.0,30.0,0.0
7.769390821456909,1520,0.0,30.0,0.0
7.781642913818359,247,0.0,30.0,0.0
7.791857719421387,768,0.0,30.0,0.0
7.80159854888916,231,0.0,30.0,0.0
7.807078123092651,602,0.0,30.0,0.0
7.82228946685791,176,0.0,30.0,0.0
7.831722736358643,944,0.0,30.0,0.0
7.841760873794556,58,0.0,30.0,0.0
7.8521270751953125,1091,0.0,30.0,0.0
7.860463857650757,38,0.0,30.0,0.0
7.868361473083496,1058,0.0,30.0,0.0
7.88143253326416,16,0.0,30.0,0.0
7.891257047653198,968,0.0,30.0,0.0
7.899407148361206,15,0.0,30.0,0.0
7.908693075180054,804,0.0,30.0,0.0
7.9218621253967285,2838,0.0,30.0,0.0
7.931257963180542,4095,0.0,30.0,0.0
7.938584327697754,3323,0.0,30.0,0.0
7.952006101608276,4095,0.0,30.0,0.0
7.9613118171691895,1446,0.0,30.0,0.0
7.970219612121582,4095,0.0,30.0,0.0
7.980764627456665,0,0.0,30.0,0.0
7.9913489818573,4095,0.0,30.0,0.0
7.99955677986145,0,0.0,30.0,0.0
8.007041692733765,4095,0.0,30.0,0.0
8.021397829055786,0,0.0,30.0,0.0
8.031239986419678,3315,0.0,30.0,0.0
8.036723375320435,0,0.0,30.0,0.0
8.052023649215698,1805,0.0,30.0,0.0
8.061704874038696,0,0.0,30.0,0.0
8.070462465286255,1868,0.0,30.0,0.0
8.08147931098938,0,0.0,30.0,0.0
8.091670751571655,1986,0.0,30.0,0.0
8.10185980796814,0,0.0,30.0,0.0
8.109314918518066,2029,0.0,30.0,0.0
8.12139105796814,0,0.0,30.0,0.0
8.1314058303833,1936,0.0,30.0,0.0
8.141380071640015,0,0.0,30.0,0.0
8.151817083358765,1775,0.0,30.0,0.0
8.161208629608154,0,0.0,30.0,0.0
8.171985864639282,1686,0.0,30.0,0.0
8.181923866271973,0,0.0,30.0,0.0
8.192013025283813,1433,0.0,30.0,0.0
8.202235460281372,0,0.0,30.0,0.0
8.206092357635498,1287,0.0,30.0,0.0
8.221042394638062,0,0.0,30.0,0.0
8.231683492660522,1125,0.0,30.0,0.0
8.241655826568604,0,0.0,30.0,0.0
8.251913785934448,999,0.0,30.0,0.0
8.261579275131226,0,0.0,30.0,0.0
8.27192759513855,940,0.0,30.0,0.0
8.28157901763916,0,0.0,30.0,0.0
8.29075002670288,832,0.0,30.0,0.0
8.299161911010742,0,0.0,30.0,0.0
8.312239646911621,720,0.0,30.0,0.0
8.317291498184204,0,0.0,30.0,0.0
8.331317663192749,631,0.0,30.0,0.0
8.339468002319336,0,0.0,30.0,0.0
8.346983432769775,490,0.0,30.0,0.0
8.358790874481201,0,0.0,30.0,0.0
8.365541219711304,387,0.0,30.0,0.0
8.376492023468018,0,0.0,30.0,0.0
8.386491537094116,259,0.0,30.0,0.0
8.397646427154541,0,0.0,30.0,0.0
8.411115169525146,86,0.0,30.0,0.0
8.422114849090576,0,0.0,30.0,0.0
8.423619270324707,66,0.0,30.0,0.0
8.435892581939697,0,0.0,30.0,0.0
8.451692819595337,0,0.0,30.0,0.0
8.45981216430664,0,0.0,30.0,0.0
8.468430995941162,0,0.0,30.0,0.0
8.481228590011597,1527,0.0,30.0,0.0
8.49023151397705,4095,0.0,30.0,0.0
8.501622438430786,2591,0.0,30.0,0.0
8.504561185836792,4095,0.0,30.0,0.0
8.51669716835022,1968,0.0,30.0,0.0
8.532032012939453,4095,0.0,30.0,0.0
8.542038679122925,1171,0.0,30.0,0.0
8.552040576934814,4095,0.0,30.0,0.0
8.562038898468018,736,0.0,30.0,0.0
8.572036981582642,4095,0.0,30.0,0.0
8.581997156143188,838,0.0,30.0,0.0
8.592001914978027,4095,0.0,30.0,0.0
8.602006673812866,785,0.0,30.0,0.0
8.604646921157837,4095,0.0,30.0,0.0
8.614707469940186,817,0.0,30.0,0.0
8.632049322128296,4095,0.0,30.0,0.0
8.64205551147461,859,0.0,30.0,0.0
8.654239177703857,4095,0.0,30.0,0.0
8.661824226379395,1715,0.0,30.0,0.0
8.671475887298584,4095,0.0,30.0,0.0
8.682042360305786,1683,0.0,30.0,0.0
8.690010070800781,4095,0.0,30.0,0.0
8.698077201843262,1875,0.0,30.0,0.0
8.712080717086792,4095,0.0,30.0,0.0
8.721091270446777,2059,0.0,30.0,0.0
8.730748653411865,4095,0.0,30.0,0.0
8.741040706634521,2590,0.0,30.0,0.0
8.743736028671265,4095,0.0,30.0,0.0
8.759918212890625,2448,0.0,30.0,0.0
8.770987033843994,4095,0.0,30.0,0.0
8.782074213027954,2221,0.0,30.0,0.0
8.79111933708191,4095,0.0,30.0,0.0
8.79744815826416,2073,0.0,30.0,0.0
8.81215238571167,4095,0.0,30.0,0.0
8.820617198944092,2066,0.0,30.0,0.0
8.8310387134552,4095,0.0,30.0,0.0
8.835751056671143,2026,0.0,30.0,0.0
8.851761817932129,4095,0.0,30.0,0.0
8.859780550003052,1692,0.0,30.0,0.0
8.871817111968994,4095,0.0,30.0,0.0
8.881345987319946,1402,0.0,30.0,0.0
8.891038179397583,4095,0.0,30.0,0.0
8.901804685592651,1275,0.0,30.0,0.0
8.911089658737183,4095,0.0,30.0,0.0
8.920727014541626,1216,0.0,30.0,0.0
8.931200981140137,4095,0.0,30.0,0.0
8.941076755523682,1055,0.0,30.0,0.0
8.951390504837036,4095,0.0,30.0,0.0
8.961999654769897,930,0.0,30.0,0.0
8.97122311592102,4095,0.0,30.0,0.0
8.98126745223999,783,0.0,30.0,0.0
8.992038249969482,4095,0.0,30.0,0.0
9.001024723052979,715,0.0,30.0,0.0
9.012077569961548,4095,0.0,30.0,0.0
9.02200961112976,601,0.0,30.0,0.0
9.031020164489746,4095,0.0,30.0,0.0
9.041955709457397,563,0.0,30.0,0.0
9.051983118057251,4095,0.0,30.0,0.0
9.061983585357666,432,0.0,30.0,0.0
9.072792053222656,4095,0.0,30.0,0.0
9.08168077468872,234,0.0,30.0,0.0
9.091132640838623,4095,0.0,30.0,0.0
9.098572969436646,746,0.0,30.0,0.0
9.111138343811035,4095,0.0,30.0,0.0
9.114631652832031,1989,0.0,30.0,0.0
9.13184642791748,4095,0.0,30.0,0.0
9.141886949539185,4095,0.0,30.0,0.0
9.151996374130249,4095,0.0,30.0,0.0
9.161980867385864,4095,0.0,30.0,0.0
9.172136783599854,4095,0.0,30.0,0.0
9.181260824203491,4095,0.0,30.0,0.0
9.192132234573364,4095,0.0,30.0,0.0
9.201166868209839,4095,0.0,30.0,0.0
9.21210503578186,4095,0.0,30.0,0.0
9.220999956130981,4095,0.0,30.0,0.0
9.231940269470215,4095,0.0,30.0,0.0
9.241130113601685,4095,0.0,30.0,0.0
9.250253915786743,4095,0.0,30.0,0.0
9.258951663970947,4095,0.0,30.0,0.0
9.27176547050476,4095,0.0,30.0,0.0
9.281802892684937,4095,0.0,30.0,0.0
9.29211950302124,4095,0.0,30.0,0.0
9.30123782157898,4095,0.0,30.0,0.0
9.309959650039673,4095,0.0,30.0,0.0
9.322009325027466,4095,0.0,30.0,0.0
9.331110715866089,4095,0.0,30.0,0.0
9.341230869293213,4095,0.0,30.0,0.0
9.35174298286438,4095,0.0,30.0,0.0
9.362090110778809,4095,0.0,30.0,0.0
9.371687173843384,4095,0.0,30.0,0.0
9.3821542263031,4095,0.0,30.0,0.0
9.392177820205688,4095,0.0,30.0,0.0
9.401367664337158,688,0.0,30.0,0.0
9.4121835231781,4095,0.0,30.0,0.0
9.420409917831421,0,0.0,30.0,0.0
9.431320667266846,4095,0.0,30.0,0.0
9.4421968460083,4095,0.0,30.0,0.0
9.451291799545288,4095,0.0,30.0,0.0
9.462276935577393,4095,0.0,30.0,0.0
9.47108507156372,4095,0.0,30.0,0.0
9.481929063796997,4095,0.0,30.0,0.0
9.492175102233887,4095,0.0,30.0,0.0
9.50108814239502,4095,0.0,30.0,0.0
9.511463403701782,4095,0.0,30.0,0.0
9.521812677383423,4095,0.0,30.0,0.0
9.531930685043335,4095,0.0,30.0,0.0
9.541177034378052,4095,0.0,30.0,0.0
9.55180048942566,4095,0.0,30.0,0.0
9.56227707862854,4095,0.0,30.0,0.0
9.571911573410034,4095,0.0,30.0,0.0
9.581974744796753,4095,0.0,30.0,0.0
9.592127323150635,4095,0.0,30.0,0.0
9.59956979751587,4095,0.0,30.0,0.0
9.611099243164062,4095,0.0,30.0,0.0
9.621466398239136,4095,0.0,30.0,0.0
9.631163597106934,4095,0.0,30.0,0.0
9.642103910446167,4095,0.0,30.0,0.0
9.651678800582886,4095,0.0,30.0,0.0
9.662261962890625,4095,0.0,30.0,0.0
9.671638488769531,4095,0.0,30.0,0.0
9.68203067779541,4095,0.0,30.0,0.0
9.691128969192505,4095,0.0,30.0,0.0
9.70186996459961,4095,0.0,30.0,0.0
9.705537796020508,4095,0.0,30.0,0.0
9.721249341964722,4095,0.0,30.0,0.0
9.731941938400269,4095,0.0,30.0,0.0
9.741384029388428,4095,0.0,30.0,0.0
9.751513719558716,4095,0.0,30.0,0.0
9.756531238555908,4095,0.0,30.0,0.0
9.771955013275146,4095,0.0,30.0,0.0
9.782033681869507,4095,0.0,30.0,0.0
9.79121446609497,4095,0.0,30.0,0.0
9.801222801208496,4095,0.0,30.0,0.0
9.809463024139404,4095,0.0,30.0,0.0
9.821232557296753,4095,0.0,30.0,0.0
9.832019567489624,4095,0.0,30.0,0.0
9.841399669647217,4095,0.0,30.0,0.0
9.85163140296936,4095,0.0,30.0,0.0
9.862177848815918,4095,0.0,30.0,0.0
9.87143611907959,4095,0.0,30.0,0.0
9.880980491638184,4095,0.0,30.0,0.0
9.888648271560669,4095,0.0,30.0,0.0
9.90104627609253,4095,0.0,30.0,0.0
9.912049055099487,4095,0.0,30.0,0.0
9.921178340911865,4095,0.0,30.0,0.0
9.93196439743042,4095,0.0,30.0,0.0
9.94138789176941,4095,0.0,30.0,0.0
9.95192551612854,4095,0.0,30.0,0.0
9.960917711257935,4095,0.0,30.0,0.0
9.971256017684937,4095,0.0,30.0,0.0
9.980991840362549,4095,0.0,30.0,0.0
9.990604400634766,4095,0.0,30.0,0.0
10.00170087814331,4095,0.0,30.0,0.0
10.012210130691528,4095,0.0,30.0,0.0
10.02152967453003,4095,0.0,30.0,0.0
10.031952857971191,4095,0.0,30.0,0.0
10.041552543640137,4095,0.0,30.0,0.0
10.051828622817993,4095,0.0,30.0,0.0
10.061167240142822,4095,0.0,30.0,0.0
10.071471691131592,4095,0.0,30.0,0.0
10.082032203674316,4095,0.0,30.0,0.0
10.09207034111023,4095,0.0,30.0,0.0
10.101385354995728,4095,0.0,30.0,0.0
10.112145900726318,4095,0.0,30.0,0.0
10.121619462966919,4095,0.0,30.0,0.0
10.131162881851196,4095,0.0,30.0,0.0
10.141619443893433,4095,0.0,30.0,0.0
10.15190315246582,4095,0.0,30.0,0.0
10.157307624816895,4095,0.0,30.0,0.0
10.171960592269897,4095,0.0,30.0,0.0
10.18129587173462,4095,0.0,30.0,0.0
10.191067218780518,4095,0.0,30.0,0.0
10.201027631759644,4095,0.0,30.0,0.0
10.21106243133545,4095,0.0,30.0,0.0
10.221300840377808,4095,0.0,30.0,0.0
10.23188328742981,4095,0.0,30.0,0.0
10.241852045059204,4095,0.0,30.0,0.0
10.249758958816528,4095,0.0,30.0,0.0
10.261121273040771,4095,0.0,30.0,0.0
10.27172589302063,4095,0.0,30.0,0.0
10.282011985778809,4095,0.0,30.0,0.0
10.291114330291748,4095,0.0,30.0,0.0
10.301854610443115,4095,0.0,30.0,0.0
10.31091570854187,4095,0.0,30.0,0.0
10.322026491165161,4095,0.0,30.0,0.0
10.331927299499512,4095,0.0,30.0,0.0
10.337221622467041,4095,0.0,30.0,0.0
10.366315603256226,4095,0.0,30.0,0.0
10.366315603256226,4095,0.0,30.0,0.0
10.371644258499146,4095,0.0,30.0,0.0
10.381007194519043,4095,0.0,30.0,0.0
10.391774892807007,4095,0.0,30.0,0.0
10.401657581329346,4095,0.0,30.0,0.0
10.40464997291565,4095,0.0,30.0,0.0
10.421834707260132,4095,0.0,30.0,0.0
10.431007623672485,3222,0.0,30.0,0.0
10.438799858093262,4095,0.0,30.0,0.0
10.449661254882812,2961,0.0,30.0,0.0
10.462143659591675,4095,0.0,30.0,0.0
10.464978456497192,3747,0.0,30.0,0.0
10.481219053268433,4095,0.0,30.0,0.0
10.491206169128418,4095,0.0,30.0,0.0
10.500888586044312,4095,0.0,30.0,0.0
10.51217770576477,4095,0.0,30.0,0.0
10.515831708908081,4095,0.0,30.0,0.0
10.53157901763916,4095,0.0,30.0,0.0
10.541691303253174,4095,0.0,30.0,0.0
10.551633358001709,4095,0.0,30.0,0.0
10.56093716621399,4095,0.0,30.0,0.0
10.571728706359863,4095,0.0,30.0,0.0
10.581922054290771,4095,0.0,30.0,0.0
10.592186450958252,4095,0.0,30.0,0.0
10.601596117019653,4095,0.0,30.0,0.0
10.612170457839966,4095,0.0,30.0,0.0
10.621142625808716,4095,0.0,30.0,0.0
10.631484270095825,4095,0.0,30.0,0.0
10.64219045639038,4095,0.0,30.0,0.0
10.651204109191895,4095,0.0,30.0,0.0
10.66218614578247,4095,0.0,30.0,0.0
10.672152042388916,4095,0.0,30.0,0.0
10.681170463562012,4095,0.0,30.0,0.0
10.692265510559082,4095,0.0,30.0,0.0
10.699900388717651,4095,0.0,30.0,0.0
10.7122163772583,4095,0.0,30.0,0.0
10.72218656539917,4095,0.0,30.0,0.0
10.73214602470398,4095,0.0,30.0,0.0
10.74117660522461,4095,0.0,30.0,0.0
10.751087427139282,4087,0.0,30.0,0.0
10.762209177017212,4095,0.0,30.0,0.0
10.771907806396484,3765,0.0,30.0,0.0
10.781979084014893,4095,0.0,30.0,0.0
10.79124665260315,3574,0.0,30.0,0.0
10.801473617553711,4095,0.0,30.0,0.0
10.808557510375977,3392,0.0,30.0,0.0
10.821458578109741,4095,0.0,30.0,0.0
10.829440593719482,3207,0.0,30.0,0.0
10.842189073562622,4095,0.0,30.0,0.0
10.851893186569214,3021,0.0,30.0,0.0
10.862243413925171,4095,0.0,30.0,0.0
10.871193885803223,4095,0.0,30.0,0.0
10.882048845291138,4095,0.0,30.0,0.0
10.891724824905396,4095,0.0,30.0,0.0
10.901166915893555,4095,0.0,30.0,0.0
10.907073736190796,4095,0.0,30.0,0.0
10.921169757843018,4095,0.0,30.0,0.0
10.932257413864136,4095,0.0,30.0,0.0
10.942190408706665,4095,0.0,30.0,0.0
10.952189207077026,4095,0.0,30.0,0.0
10.961152076721191,4095,0.0,30.0,0.0
10.972187280654907,4095,0.0,30.0,0.0
10.980259895324707,4095,0.0,30.0,0.0
10.99174451828003,2709,0.0,30.0,0.0
10.999226570129395,4095,0.0,30.0,0.0
11.012226343154907,1474,0.0,30.0,0.0
11.015437602996826,4095,0.0,30.0,0.0
11.030991077423096,1296,0.0,30.0,0.0
11.037620782852173,4095,0.0,30.0,0.0
11.047785520553589,1361,0.0,30.0,0.0
11.062255620956421,4095,0.0,30.0,0.0
11.071268558502197,1422,0.0,30.0,0.0
11.080168962478638,4095,0.0,30.0,0.0
11.092263460159302,1395,0.0,30.0,0.0
11.09837555885315,4095,0.0,30.0,0.0
11.111190557479858,1433,0.0,30.0,0.0
11.121469020843506,4095,0.0,30.0,0.0
11.132086753845215,1471,0.0,30.0,0.0
11.14127516746521,4095,0.0,30.0,0.0
11.150983333587646,1475,0.0,30.0,0.0
11.160903930664062,4095,0.0,30.0,0.0
11.165599822998047,1430,0.0,30.0,0.0
11.181058645248413,4095,0.0,30.0,0.0
11.19178581237793,1451,0.0,30.0,0.0
11.201189517974854,4095,0.0,30.0,0.0
11.212207078933716,1487,0.0,30.0,0.0
11.215058326721191,4095,0.0,30.0,0.0
11.232243061065674,1513,0.0,30.0,0.0
11.238217115402222,4095,0.0,30.0,0.0
11.252187490463257,1589,0.0,30.0,0.0
11.261592149734497,4095,0.0,30.0,0.0
11.272241830825806,1659,0.0,30.0,0.0
11.28042459487915,4095,0.0,30.0,0.0
11.29204773902893,1518,0.0,30.0,0.0
11.302189111709595,4095,0.0,30.0,0.0
11.312267780303955,1656,0.0,30.0,0.0
11.321160554885864,3993,0.0,30.0,0.0
11.331273317337036,1663,0.0,30.0,0.0
11.341209411621094,3107,0.0,30.0,0.0
11.347954511642456,1543,0.0,30.0,0.0
11.360310316085815,4095,0.0,30.0,0.0
11.364683866500854,1234,0.0,30.0,0.0
11.380409002304077,4095,0.0,30.0,0.0
11.391946792602539,1106,0.0,30.0,0.0
11.401593685150146,4095,0.0,30.0,0.0
11.411407232284546,1034,0.0,30.0,0.0
11.421523332595825,4095,0.0,30.0,0.0
11.431421995162964,1009,0.0,30.0,0.0
11.441226243972778,4095,0.0,30.0,0.0
11.451156616210938,973,0.0,30.0,0.0
11.460824728012085,4095,0.0,30.0,0.0
11.468644142150879,969,0.0,30.0,0.0
11.481805324554443,4095,0.0,30.0,0.0
11.491899013519287,981,0.0,30.0,0.0
11.5023353099823,4095,0.0,30.0,0.0
11.511186599731445,942,0.0,30.0,0.0
11.52155065536499,3291,0.0,30.0,0.0
11.53156304359436,1021,0.0,30.0,0.0
11.541215896606445,4095,0.0,30.0,0.0
11.551236152648926,967,0.0,30.0,0.0
11.560590505599976,3903,0.0,30.0,0.0
11.56845736503601,925,0.0,30.0,0.0
11.581879138946533,3495,0.0,30.0,0.0
11.59042477607727,898,0.0,30.0,0.0
11.601375579833984,4095,0.0,30.0,0.0
11.61100697517395,4095,0.0,30.0,0.0
11.621371030807495,4095,0.0,30.0,0.0
11.631407022476196,4095,0.0,30.0,0.0
11.637609481811523,4095,0.0,30.0,0.0
11.649568796157837,359,0.0,30.0,0.0
11.662243127822876,4095,0.0,30.0,0.0
11.670312404632568,192,0.0,30.0,0.0
11.682183027267456,4095,0.0,30.0,0.0
11.690300703048706,301,0.0,30.0,0.0
11.702274322509766,4095,0.0,30.0,0.0
11.706851959228516,309,0.0,30.0,0.0
11.722180366516113,4095,0.0,30.0,0.0
11.730970621109009,315,0.0,30.0,0.0
11.742373943328857,4095,0.0,30.0,0.0
11.74751329421997,373,0.0,30.0,0.0
11.761276006698608,4095,0.0,30.0,0.0
11.766951084136963,381,0.0,30.0,0.0
11.781059980392456,4095,0.0,30.0,0.0
11.785717487335205,335,0.0,30.0,0.0
11.797970294952393,4095,0.0,30.0,0.0
11.811241626739502,397,0.0,30.0,0.0
11.82221794128418,4095,0.0,30.0,0.0
11.830120325088501,407,0.0,30.0,0.0
11.841552734375,4042,0.0,30.0,0.0
11.847899913787842,432,0.0,30.0,0.0
11.862200021743774,3361,0.0,30.0,0.0
11.867000579833984,434,0.0,30.0,0.0
11.882179975509644,2883,0.0,30.0,0.0
11.890259981155396,454,0.0,30.0,0.0
11.902209997177124,2533,0.0,30.0,0.0
11.911211729049683,373,0.0,30.0,0.0
11.92222547531128,2097,0.0,30.0,0.0
11.931074619293213,295,0.0,30.0,0.0
11.942256450653076,1704,0.0,30.0,0.0
11.950982093811035,315,0.0,30.0,0.0
11.959896326065063,1488,0.0,30.0,0.0
11.966261386871338,333,0.0,30.0,0.0
11.98196530342102,1307,0.0,30.0,0.0
11.991179466247559,366,0.0,30.0,0.0
11.998687028884888,1008,0.0,30.0,0.0
12.006733655929565,377,0.0,30.0,0.0
12.021178007125854,757,0.0,30.0,0.0
12.029984474182129,379,0.0,30.0,0.0
12.040688514709473,579,0.0,30.0,0.0
12.046497583389282,384,0.0,30.0,0.0
12.055475950241089,335,0.0,30.0,0.0
12.070859432220459,379,0.0,30.0,0.0
12.079736232757568,322,0.0,30.0,0.0
12.08975100517273,339,0.0,30.0,0.0
12.098343133926392,266,0.0,30.0,0.0
12.105457305908203,248,0.0,30.0,0.0
12.120245933532715,137,0.0,30.0,0.0
12.130386352539062,165,0.0,30.0,0.0
12.13646936416626,0,0.0,30.0,0.0
12.150854349136353,108,0.0,30.0,0.0
12.159406661987305,0,0.0,30.0,0.0
12.16704535484314,94,0.0,30.0,0.0
12.180380582809448,0,0.0,30.0,0.0
12.190348625183105,85,0.0,30.0,0.0
12.200894117355347,0,0.0,30.0,0.0
12.205634832382202,401,0.0,30.0,0.0
12.220873594284058,459,0.0,30.0,0.0
12.230791807174683,448,0.0,30.0,0.0
12.240791082382202,572,0.0,30.0,0.0
12.25072979927063,64,0.0,30.0,0.0
12.260981798171997,389,0.0,30.0,0.0
12.27004361152649,96,0.0,30.0,0.0
12.280955791473389,415,0.0,30.0,0.0
12.290980577468872,121,0.0,30.0,0.0
12.300943374633789,455,0.0,30.0,0.0
12.310743570327759,112,0.0,30.0,0.0
12.314652681350708,645,0.0,30.0,0.0
12.330247163772583,114,0.0,30.0,0.0
12.341289043426514,3367,0.0,30.0,0.0
12.35122299194336,4095,0.0,30.0,0.0
12.357896566390991,4095,0.0,30.0,0.0
12.371708154678345,1507,0.0,30.0,0.0
12.379131555557251,896,0.0,30.0,0.0
12.392224788665771,4095,0.0,30.0,0.0
12.401387691497803,4095,0.0,30.0,0.0
12.411524772644043,4095,0.0,30.0,0.0
12.415028095245361,4095,0.0,30.0,0.0
12.430856704711914,4095,0.0,30.0,0.0
12.441340446472168,2647,0.0,30.0,0.0
12.450987339019775,3954,0.0,30.0,0.0
12.461457014083862,2685,0.0,30.0,0.0
12.47127079963684,3345,0.0,30.0,0.0
12.481985569000244,2555,0.0,30.0,0.0
12.492223262786865,2230,0.0,30.0,0.0
12.497428894042969,2153,0.0,30.0,0.0
12.507545232772827,0,0.0,30.0,0.0
12.52132272720337,1669,0.0,30.0,0.0
12.530053615570068,0,0.0,30.0,0.0
12.542290449142456,1529,0.0,30.0,0.0
12.551130533218384,0,0.0,30.0,0.0
12.558852910995483,1522,0.0,30.0,0.0
12.570862293243408,0,0.0,30.0,0.0
12.581631183624268,1558,0.0,30.0,0.0
12.590791702270508,0,0.0,30.0,0.0
12.601167678833008,1488,0.0,30.0,0.0
12.606986284255981,0,0.0,30.0,0.0
12.621191263198853,1565,0.0,30.0,0.0
12.631011247634888,0,0.0,30.0,0.0
12.64128041267395,1531,0.0,30.0,0.0
12.650466203689575,0,0.0,30.0,0.0
12.658607959747314,1424,0.0,30.0,0.0
12.670159816741943,0,0.0,30.0,0.0
12.681499481201172,1379,0.0,30.0,0.0
12.690039157867432,0,0.0,30.0,0.0
12.701651096343994,1451,0.0,30.0,0.0
12.710855722427368,0,0.0,30.0,0.0
12.72096562385559,1394,0.0,30.0,0.0
12.730488300323486,0,0.0,30.0,0.0
12.741551160812378,1255,0.0,30.0,0.0
12.750834465026855,0,0.0,30.0,0.0
12.762496709823608,1186,0.0,30.0,0.0
12.77063274383545,0,0.0,30.0,0.0
12.781420707702637,1133,0.0,30.0,0.0
12.790199279785156,0,0.0,30.0,0.0
12.799411535263062,940,0.0,30.0,0.0
12.807634115219116,0,0.0,30.0,0.0
12.814224004745483,883,0.0,30.0,0.0
12.830785512924194,0,0.0,30.0,0.0
12.840864896774292,785,0.0,30.0,0.0
12.849303960800171,0,0.0,30.0,0.0
12.857309579849243,726,0.0,30.0,0.0
12.864771604537964,0,0.0,30.0,0.0
12.880121946334839,880,0.0,30.0,0.0
12.890401840209961,0,0.0,30.0,0.0
12.901300191879272,4095,0.0,30.0,0.0
12.911227226257324,1426,0.0,30.0,0.0
12.91376256942749,4095,0.0,30.0,0.0
12.93222713470459,1584,0.0,30.0,0.0
12.941282987594604,4095,0.0,30.0,0.0
12.943275690078735,704,0.0,30.0,0.0
12.962331295013428,4095,0.0,30.0,0.0
12.964116096496582,320,0.0,30.0,0.0
12.981250047683716,4095,0.0,30.0,0.0
12.981250047683716,49,0.0,30.0,0.0
13.002238512039185,4095,0.0,30.0,0.0
13.010411739349365,0,0.0,30.0,0.0
13.018798828125,4095,0.0,30.0,0.0
13.02705192565918,0,0.0,30.0,0.0
13.042348384857178,4095,0.0,30.0,0.0
13.049865484237671,0,0.0,30.0,0.0
13.062378644943237,4095,0.0,30.0,0.0
13.065492630004883,0,0.0,30.0,0.0
13.081054925918579,4095,0.0,30.0,0.0
13.09086799621582,0,0.0,30.0,0.0
13.100993871688843,4095,0.0,30.0,0.0
13.110490322113037,547,0.0,30.0,0.0
13.121765375137329,4095,0.0,30.0,0.0
13.131471395492554,2039,0.0,30.0,0.0
13.141099691390991,4095,0.0,30.0,0.0
13.15151309967041,2012,0.0,30.0,0.0
13.162400007247925,4095,0.0,30.0,0.0
13.1717529296875,2120,0.0,30.0,0.0
13.181483745574951,4095,0.0,30.0,0.0
13.189961194992065,2189,0.0,30.0,0.0
13.200331926345825,4095,0.0,30.0,0.0
13.205351114273071,2224,0.0,30.0,0.0
13.221512079238892,4095,0.0,30.0,0.0
13.23146915435791,2269,0.0,30.0,0.0
13.242098569869995,4095,0.0,30.0,0.0
13.251039266586304,2267,0.0,30.0,0.0
13.26241135597229,4095,0.0,30.0,0.0
13.271260023117065,2261,0.0,30.0,0.0
13.28162956237793,4095,0.0,30.0,0.0
13.291539430618286,2238,0.0,30.0,0.0
13.30171537399292,4095,0.0,30.0,0.0
13.311655759811401,1526,0.0,30.0,0.0
13.321811437606812,4095,0.0,30.0,0.0
13.331458806991577,1233,0.0,30.0,0.0
13.341003179550171,4095,0.0,30.0,0.0
13.350481510162354,800,0.0,30.0,0.0
13.35654902458191,4095,0.0,30.0,0.0
13.370962858200073,688,0.0,30.0,0.0
13.380465030670166,4095,0.0,30.0,0.0
13.390421152114868,587,0.0,30.0,0.0
13.400699138641357,4095,0.0,30.0,0.0
13.405246257781982,555,0.0,30.0,0.0
13.420726299285889,4095,0.0,30.0,0.0
13.430443048477173,451,0.0,30.0,0.0
13.44075059890747,4095,0.0,30.0,0.0
13.450056791305542,409,0.0,30.0,0.0
13.461266279220581,4095,0.0,30.0,0.0
13.470262289047241,403,0.0,30.0,0.0
13.48145318031311,4095,0.0,30.0,0.0
13.487170696258545,326,0.0,30.0,0.0
13.500245332717896,4095,0.0,30.0,0.0
13.510388374328613,243,0.0,30.0,0.0
13.52036738395691,4095,0.0,30.0,0.0
13.53162407875061,2165,0.0,30.0,0.0
13.54125165939331,4095,0.0,30.0,0.0
13.550931930541992,4095,0.0,30.0,0.0
13.561309337615967,4095,0.0,30.0,0.0
13.570870161056519,4095,0.0,30.0,0.0
13.581637144088745,4095,0.0,30.0,0.0
13.590435028076172,4095,0.0,30.0,0.0
13.601168870925903,4095,0.0,30.0,0.0
13.61235523223877,4095,0.0,30.0,0.0
13.621275901794434,4095,0.0,30.0,0.0
13.631332874298096,4095,0.0,30.0,0.0
13.641594171524048,4095,0.0,30.0,0.0
13.651848077774048,4095,0.0,30.0,0.0
13.66122055053711,4095,0.0,30.0,0.0
13.671759366989136,4095,0.0,30.0,0.0
13.68088984489441,4095,0.0,30.0,0.0
13.69100570678711,4095,0.0,30.0,0.0
13.701770782470703,4095,0.0,30.0,0.0
13.712282657623291,4095,0.0,30.0,0.0
13.718538761138916,4095,0.0,30.0,0.0
13.731245040893555,4095,0.0,30.0,0.0
13.741159915924072,4095,0.0,30.0,0.0
13.75110411643982,4095,0.0,30.0,0.0
13.76235556602478,4095,0.0,30.0,0.0
13.771336078643799,4095,0.0,30.0,0.0
13.78051495552063,4095,0.0,30.0,0.0
13.791013717651367,4095,0.0,30.0,0.0
13.800872564315796,4095,0.0,30.0,0.0
13.810382843017578,4095,0.0,30.0,0.0
13.82072925567627,4095,0.0,30.0,0.0
13.830181360244751,4095,0.0,30.0,0.0
13.840168476104736,4095,0.0,30.0,0.0
13.84947395324707,4095,0.0,30.0,0.0
13.855660915374756,4095,0.0,30.0,0.0
13.87047004699707,4095,0.0,30.0,0.0
13.880273580551147,4095,0.0,30.0,0.0
13.890082597732544,2781,0.0,30.0,0.0
13.90055227279663,4095,0.0,30.0,0.0
13.908092260360718,4095,0.0,30.0,0.0
13.920952796936035,4095,0.0,30.0,0.0
13.930512428283691,2873,0.0,30.0,0.0
13.94086241722107,4095,0.0,30.0,0.0
13.950169324874878,4095,0.0,30.0,0.0
13.960973024368286,4095,0.0,30.0,0.0
13.97042727470398,4095,0.0,30.0,0.0
13.980953454971313,4095,0.0,30.0,0.0
13.991546154022217,4095,0.0,30.0,0.0
14.000707864761353,4095,0.0,30.0,0.0
14.008013486862183,3696,0.0,30.0,0.0
14.02041745185852,4095,0.0,30.0,0.0
14.030760288238525,4095,0.0,30.0,0.0
14.039918184280396,4095,0.0,30.0,0.0
14.050750255584717,4095,0.0,30.0,0.0
14.060840845108032,4095,0.0,30.0,0.0
14.070594787597656,4095,0.0,30.0,0.0
14.080346584320068,4095,0.0,30.0,0.0
14.08875560760498,4095,0.0,30.0,0.0
14.100512981414795,4095,0.0,30.0,0.0
14.107992887496948,4095,0.0,30.0,0.0
14.120773315429688,4095,0.0,30.0,0.0
14.130983829498291,4095,0.0,30.0,0.0
14.14120888710022,4095,0.0,30.0,0.0
14.150599479675293,4095,0.0,30.0,0.0
14.160955667495728,4095,0.0,30.0,0.0
14.170396327972412,4095,0.0,30.0,0.0
14.18056344985962,4095,0.0,30.0,0.0
14.188947677612305,4095,0.0,30.0,0.0
14.200471639633179,4095,0.0,30.0,0.0
14.208942651748657,4095,0.0,30.0,0.0
14.22024154663086,4095,0.0,30.0,0.0
14.230456829071045,4095,0.0,30.0,0.0
14.240941524505615,4095,0.0,30.0,0.0
14.2500901222229,4095,0.0,30.0,0.0
14.255730628967285,4095,0.0,30.0,0.0
14.264673233032227,4095,0.0,30.0,0.0
14.280850172042847,4095,0.0,30.0,0.0
14.289325952529907,4095,0.0,30.0,0.0
14.30049467086792,4095,0.0,30.0,0.0
14.307300806045532,4095,0.0,30.0,0.0
14.320579051971436,4095,0.0,30.0,0.0
14.33029055595398,4095,0.0,30.0,0.0
14.339733362197876,4095,0.0,30.0,0.0
14.350935459136963,4095,0.0,30.0,0.0
14.357161045074463,4095,0.0,30.0,0.0
14.370940923690796,4095,0.0,30.0,0.0
14.380305290222168,4095,0.0,30.0,0.0
14.390688419342041,4095,0.0,30.0,0.0
14.401162385940552,4095,0.0,30.0,0.0
14.407121658325195,4095,0.0,30.0,0.0
14.420781135559082,4095,0.0,30.0,0.0
14.430295467376709,4095,0.0,30.0,0.0
14.437911748886108,4095,0.0,30.0,0.0
14.450806856155396,4095,0.0,30.0,0.0
14.457860469818115,4095,0.0,30.0,0.0
14.469226121902466,4095,0.0,30.0,0.0
14.48101282119751,4095,0.0,30.0,0.0
14.484750509262085,4095,0.0,30.0,0.0
14.500583171844482,4095,0.0,30.0,0.0
14.50803518295288,4095,0.0,30.0,0.0
14.515775918960571,4095,0.0,30.0,0.0
14.531248331069946,4095,0.0,30.0,0.0
14.539605617523193,4095,0.0,30.0,0.0
14.550910234451294,4095,0.0,30.0,0.0
14.562398433685303,4095,0.0,30.0,0.0
14.569580793380737,4095,0.0,30.0,0.0
14.580693483352661,4095,0.0,30.0,0.0
14.591338157653809,4095,0.0,30.0,0.0
14.600555419921875,4095,0.0,30.0,0.0
14.610219717025757,4095,0.0,30.0,0.0
14.615379095077515,4095,0.0,30.0,0.0
14.630805253982544,4095,0.0,30.0,0.0
14.639798164367676,4095,0.0,30.0,0.0
14.64619493484497,4095,0.0,30.0,0.0
14.654743909835815,4095,0.0,30.0,0.0
14.670655250549316,4095,0.0,30.0,0.0
14.680527448654175,4095,0.0,30.0,0.0
14.683259725570679,4095,0.0,30.0,0.0
14.699863195419312,4095,0.0,30.0,0.0
14.707874059677124,4095,0.0,30.0,0.0
14.720874309539795,4095,0.0,30.0,0.0
14.731192111968994,4095,0.0,30.0,0.0
14.739201545715332,4095,0.0,30.0,0.0
14.747066974639893,4095,0.0,30.0,0.0
14.756185293197632,4095,0.0,30.0,0.0
14.763805866241455,4095,0.0,30.0,0.0
14.780381441116333,4095,0.0,30.0,0.0
14.78775668144226,4095,0.0,30.0,0.0
14.796397924423218,4095,0.0,30.0,0.0
14.804399967193604,4095,0.0,30.0,0.0
14.82094693183899,4095,0.0,30.0,0.0
14.829725980758667,4095,0.0,30.0,0.0
14.838868379592896,4095,0.0,30.0,0.0
14.847820043563843,4095,0.0,30.0,0.0
14.855830669403076,4095,0.0,30.0,0.0
14.870315551757812,4095,0.0,30.0,0.0
14.879468441009521,4095,0.0,30.0,0.0
14.890709161758423,4095,0.0,30.0,0.0
14.899263381958008,4095,0.0,30.0,0.0
14.90713119506836,4095,0.0,30.0,0.0
14.914896011352539,4095,0.0,30.0,0.0
14.930532455444336,4095,0.0,30.0,0.0
14.939603805541992,4095,0.0,30.0,0.0
14.946471452713013,4095,0.0,30.0,0.0
14.961084127426147,3937,0.0,30.0,0.0
14.968440294265747,4095,0.0,30.0,0.0
14.98055911064148,3941,0.0,30.0,0.0
14.991365671157837,4095,0.0,30.0,0.0
14.99910306930542,3895,0.0,30.0,0.0
15.011012077331543,4095,0.0,30.0,0.0
15.018866777420044,3869,0.0,30.0,0.0
15.030218601226807,4095,0.0,30.0,0.0
15.038557052612305,3998,0.0,30.0,0.0
15.047706127166748,4095,0.0,30.0,0.0
15.060752391815186,4095,0.0,30.0,0.0
15.068198204040527,4095,0.0,30.0,0.0
15.081172466278076,3583,0.0,30.0,0.0
15.091253519058228,4095,0.0,30.0,0.0
15.100796222686768,3407,0.0,30.0,0.0
15.106740236282349,4095,0.0,30.0,0.0
15.115530252456665,3186,0.0,30.0,0.0
15.131036281585693,4095,0.0,30.0,0.0
15.137594938278198,3245,0.0,30.0,0.0
15.147481679916382,4095,0.0,30.0,0.0
15.160356998443604,3109,0.0,30.0,0.0
15.167971134185791,4095,0.0,30.0,0.0
15.180912494659424,2978,0.0,30.0,0.0
15.190874338150024,4095,0.0,30.0,0.0
15.200440883636475,2893,0.0,30.0,0.0
15.205444574356079,4095,0.0,30.0,0.0
15.220537424087524,2816,0.0,30.0,0.0
15.23080039024353,4095,0.0,30.0,0.0
15.23881220817566,2750,0.0,30.0,0.0
15.246736526489258,4095,0.0,30.0,0.0
15.254752159118652,2671,0.0,30.0,0.0
15.271214246749878,4095,0.0,30.0,0.0
15.281108379364014,4095,0.0,30.0,0.0
15.291322469711304,4095,0.0,30.0,0.0
15.29638957977295,4095,0.0,30.0,0.0
15.30447244644165,4095,0.0,30.0,0.0
15.312966346740723,3241,0.0,30.0,0.0
15.329785346984863,4095,0.0,30.0,0.0
15.337827920913696,1646,0.0,30.0,0.0
15.346387147903442,4095,0.0,30.0,0.0
15.360404968261719,1874,0.0,30.0,0.0
15.366950035095215,4095,0.0,30.0,0.0
15.379729270935059,1989,0.0,30.0,0.0
15.391356706619263,4095,0.0,30.0,0.0
15.40085506439209,2032,0.0,30.0,0.0
15.406155824661255,4095,0.0,30.0,0.0
15.420658349990845,2085,0.0,30.0,0.0
15.430888414382935,4095,0.0,30.0,0.0
15.440196752548218,2030,0.0,30.0,0.0
15.450714826583862,4095,0.0,30.0,0.0
15.460891008377075,1975,0.0,30.0,0.0
15.471149206161499,4095,0.0,30.0,0.0
15.481067895889282,2006,0.0,30.0,0.0
15.490929365158081,4095,0.0,30.0,0.0
15.500531911849976,2096,0.0,30.0,0.0
15.50877046585083,4095,0.0,30.0,0.0
15.520530223846436,2125,0.0,30.0,0.0
15.53083348274231,4095,0.0,30.0,0.0
15.54077410697937,2128,0.0,30.0,0.0
15.550604820251465,3909,0.0,30.0,0.0
15.560683250427246,2146,0.0,30.0,0.0
15.570679664611816,3211,0.0,30.0,0.0
15.581128597259521,2145,0.0,30.0,0.0
15.591087102890015,3023,0.0,30.0,0.0
15.601073265075684,2117,0.0,30.0,0.0
15.611184120178223,3008,0.0,30.0,0.0
15.620468616485596,1954,0.0,30.0,0.0
15.630688905715942,2443,0.0,30.0,0.0
15.641048192977905,1671,0.0,30.0,0.0
15.650635480880737,2201,0.0,30.0,0.0
15.661231994628906,1472,0.0,30.0,0.0
15.670605182647705,2033,0.0,30.0,0.0
15.681162357330322,1360,0.0,30.0,0.0
15.68988823890686,1221,0.0,30.0,0.0
15.700430154800415,1264,0.0,30.0,0.0
15.710375308990479,896,0.0,30.0,0.0
15.714031457901001,1154,0.0,30.0,0.0
15.730872869491577,2463,0.0,30.0,0.0
15.741539478302002,838,0.0,30.0,0.0
15.746539115905762,4095,0.0,30.0,0.0
15.754584789276123,917,0.0,30.0,0.0
15.765542268753052,4095,0.0,30.0,0.0
15.78123664855957,1180,0.0,30.0,0.0
15.78123664855957,3689,0.0,30.0,0.0
15.80126953125,1270,0.0,30.0,0.0
15.80126953125,3387,0.0,30.0,0.0
15.81234622001648,1342,0.0,30.0,0.0
15.822390079498291,4095,0.0,30.0,0.0
15.832388401031494,1341,0.0,30.0,0.0
15.850842714309692,4095,0.0,30.0,0.0
15.860136032104492,1345,0.0,30.0,0.0
15.865297317504883,4095,0.0,30.0,0.0
15.880694389343262,1325,0.0,30.0,0.0
15.88980221748352,4095,0.0,30.0,0.0
15.897289037704468,1305,0.0,30.0,0.0
15.910638332366943,4095,0.0,30.0,0.0
15.920773267745972,1314,0.0,30.0,0.0
15.92909026145935,4095,0.0,30.0,0.0
15.935464859008789,1152,0.0,30.0,0.0
15.950963735580444,4095,0.0,30.0,0.0
15.958762884140015,1265,0.0,30.0,0.0
15.966695785522461,4095,0.0,30.0,0.0
15.974425554275513,1267,0.0,30.0,0.0
15.990902423858643,4095,0.0,30.0,0.0
15.9989013671875,1248,0.0,30.0,0.0
16.004711389541626,4095,0.0,30.0,0.0
16.02100896835327,4095,0.0,30.0,0.0
16.03066849708557,4095,0.0,30.0,0.0
16.03734064102173,4095,0.0,30.0,0.0
16.050236225128174,4095,0.0,30.0,0.0
16.058093547821045,2960,0.0,30.0,0.0
16.07105588912964,4095,0.0,30.0,0.0
16.080074548721313,4095,0.0,30.0,0.0
16.089229106903076,4095,0.0,30.0,0.0
16.100313425064087,4095,0.0,30.0,0.0
16.106433629989624,4095,0.0,30.0,0.0
16.120208501815796,4095,0.0,30.0,0.0
16.130785703659058,4095,0.0,30.0,0.0
16.138129234313965,4095,0.0,30.0,0.0
16.15054178237915,4095,0.0,30.0,0.0
16.15719199180603,1963,0.0,30.0,0.0
16.17137312889099,4095,0.0,30.0,0.0
16.180888652801514,696,0.0,30.0,0.0
16.18762755393982,4095,0.0,30.0,0.0
16.200469493865967,597,0.0,30.0,0.0
16.210873126983643,4095,0.0,30.0,0.0
16.220876455307007,729,0.0,30.0,0.0
16.230718851089478,4095,0.0,30.0,0.0
16.240148305892944,797,0.0,30.0,0.0
16.251163244247437,4095,0.0,30.0,0.0
16.257133960723877,707,0.0,30.0,0.0
16.270785808563232,4095,0.0,30.0,0.0
16.28096055984497,606,0.0,30.0,0.0
16.29097580909729,4095,0.0,30.0,0.0
16.300580978393555,499,0.0,30.0,0.0
16.305590391159058,4095,0.0,30.0,0.0
16.321303606033325,333,0.0,30.0,0.0
16.330917596817017,4095,0.0,30.0,0.0
16.340561151504517,298,0.0,30.0,0.0
16.350623846054077,4095,0.0,30.0,0.0
16.35768222808838,320,0.0,30.0,0.0
16.37102699279785,4095,0.0,30.0,0.0
16.380892276763916,291,0.0,30.0,0.0
16.39065980911255,4095,0.0,30.0,0.0
16.400909185409546,275,0.0,30.0,0.0
16.405339002609253,4095,0.0,30.0,0.0
16.420552015304565,278,0.0,30.0,0.0
16.431016445159912,3874,0.0,30.0,0.0
16.440712451934814,282,0.0,30.0,0.0
16.451112747192383,3875,0.0,30.0,0.0
16.45858120918274,256,0.0,30.0,0.0
16.471117734909058,4095,0.0,30.0,0.0
16.481289863586426,279,0.0,30.0,0.0
16.490253925323486,4095,0.0,30.0,0.0
16.500554084777832,300,0.0,30.0,0.0
16.510014057159424,4095,0.0,30.0,0.0
16.520319938659668,311,0.0,30.0,0.0
16.5309841632843,4095,0.0,30.0,0.0
16.54097318649292,342,0.0,30.0,0.0
16.55064058303833,4095,0.0,30.0,0.0
16.556413412094116,382,0.0,30.0,0.0
16.570467948913574,4095,0.0,30.0,0.0
16.580898761749268,325,0.0,30.0,0.0
16.591253995895386,4095,0.0,30.0,0.0
16.600323915481567,274,0.0,30.0,0.0
16.610034942626953,2090,0.0,30.0,0.0
16.620639324188232,373,0.0,30.0,0.0
16.630879402160645,2083,0.0,30.0,0.0
16.640560388565063,322,0.0,30.0,0.0
16.650410652160645,2511,0.0,30.0,0.0
16.65669298171997,269,0.0,30.0,0.0
16.670573711395264,3221,0.0,30.0,0.0
16.680693864822388,159,0.0,30.0,0.0
16.68718433380127,4012,0.0,30.0,0.0
16.700165033340454,125,0.0,30.0,0.0
16.709614753723145,3664,0.0,30.0,0.0
16.720860242843628,100,0.0,30.0,0.0
16.730647802352905,3136,0.0,30.0,0.0
16.740445613861084,82,0.0,30.0,0.0
16.75046396255493,2949,0.0,30.0,0.0
16.75635051727295,3341,0.0,30.0,0.0
16.77084970474243,4095,0.0,30.0,0.0
16.78074073791504,3360,0.0,30.0,0.0
16.786511421203613,4095,0.0,30.0,0.0
16.80065655708313,179,0.0,30.0,0.0
16.80516791343689,4095,0.0,30.0,0.0
16.82000470161438,0,0.0,30.0,0.0
16.83072853088379,4095,0.0,30.0,0.0
16.841277837753296,0,0.0,30.0,0.0
16.851269006729126,4095,0.0,30.0,0.0
16.856692790985107,0,0.0,30.0,0.0
16.87074089050293,4095,0.0,30.0,0.0
16.880619764328003,0,0.0,30.0,0.0
16.88911724090576,4095,0.0,30.0,0.0
16.900906324386597,0,0.0,30.0,0.0
16.91060161590576,4095,0.0,30.0,0.0
16.920403718948364,0,0.0,30.0,0.0
16.930917263031006,4095,0.0,30.0,0.0
16.941102027893066,0,0.0,30.0,0.0
16.950738430023193,4095,0.0,30.0,0.0
16.95518469810486,0,0.0,30.0,0.0
16.970627546310425,3826,0.0,30.0,0.0
16.98070454597473,0,0.0,30.0,0.0
16.989278078079224,3265,0.0,30.0,0.0
16.999971389770508,0,0.0,30.0,0.0
17.01026153564453,3133,0.0,30.0,0.0
17.020254850387573,0,0.0,30.0,0.0
17.031155347824097,3118,0.0,30.0,0.0
17.039273738861084,0,0.0,30.0,0.0
17.050394535064697,2783,0.0,30.0,0.0
17.059662342071533,0,0.0,30.0,0.0
17.071007013320923,2597,0.0,30.0,0.0
17.08039116859436,0,0.0,30.0,0.0
17.090343236923218,2265,0.0,30.0,0.0
17.09719228744507,0,0.0,30.0,0.0
17.10521149635315,1971,0.0,30.0,0.0
17.121028184890747,0,0.0,30.0,0.0
17.130777835845947,1715,0.0,30.0,0.0
17.14050602912903,0,0.0,30.0,0.0
17.150527715682983,1508,0.0,30.0,0.0
17.16029691696167,0,0.0,30.0,0.0
17.170272827148438,1277,0.0,30.0,0.0
17.180633068084717,0,0.0,30.0,0.0
17.186474800109863,1039,0.0,30.0,0.0
17.20007348060608,0,0.0,30.0,0.0
17.208431482315063,843,0.0,30.0,0.0
17.220444202423096,0,0.0,30.0,0.0
17.23100733757019,719,0.0,30.0,0.0
17.240785121917725,0,0.0,30.0,0.0
17.246328592300415,475,0.0,30.0,0.0
17.255302667617798,0,0.0,30.0,0.0
17.27117657661438,384,0.0,30.0,0.0
17.279237747192383,0,0.0,30.0,0.0
17.28652262687683,198,0.0,30.0,0.0
17.297596216201782,0,0.0,30.0,0.0
17.309855461120605,495,0.0,30.0,0.0
17.31852626800537,1456,0.0,30.0,0.0
17.330143213272095,4095,0.0,30.0,0.0
17.34033489227295,2274,0.0,30.0,0.0
17.350057363510132,4095,0.0,30.0,0.0
17.360841035842896,1193,0.0,30.0,0.0
17.370315074920654,4095,0.0,30.0,0.0
17.380620002746582,695,0.0,30.0,0.0
17.390092611312866,4095,0.0,30.0,0.0
17.400709867477417,281,0.0,30.0,0.0
17.408151865005493,4095,0.0,30.0,0.0
17.415682554244995,37,0.0,30.0,0.0
17.430238008499146,4095,0.0,30.0,0.0
17.439430952072144,0,0.0,30.0,0.0
17.448873043060303,4095,0.0,30.0,0.0
17.456892728805542,0,0.0,30.0,0.0
17.463703870773315,4095,0.0,30.0,0.0
17.48104429244995,306,0.0,30.0,0.0
17.48904800415039,4095,0.0,30.0,0.0
17.500110626220703,2095,0.0,30.0,0.0
17.508121490478516,4095,0.0,30.0,0.0
17.515437841415405,2173,0.0,30.0,0.0
17.52981925010681,4095,0.0,30.0,0.0
17.54007887840271,2384,0.0,30.0,0.0
17.550903797149658,4095,0.0,30.0,0.0
17.560678243637085,2662,0.0,30.0,0.0
17.56331181526184,4095,0.0,30.0,0.0
17.58103370666504,2771,0.0,30.0,0.0
17.58903932571411,4095,0.0,30.0,0.0
17.598862409591675,2779,0.0,30.0,0.0
17.60902714729309,4095,0.0,30.0,0.0
17.615241527557373,2214,0.0,30.0,0.0
17.629674911499023,4095,0.0,30.0,0.0
17.637683629989624,2352,0.0,30.0,0.0
17.647045612335205,4095,0.0,30.0,0.0
17.655054330825806,2345,0.0,30.0,0.0
17.66418719291687,4095,0.0,30.0,0.0
17.68085503578186,2056,0.0,30.0,0.0
17.688867807388306,4095,0.0,30.0,0.0
17.700850248336792,1804,0.0,30.0,0.0
17.708876848220825,4095,0.0,30.0,0.0
17.7150297164917,1534,0.0,30.0,0.0
17.729855060577393,4095,0.0,30.0,0.0
17.737871646881104,1382,0.0,30.0,0.0
17.750279664993286,4095,0.0,30.0,0.0
17.754633903503418,1190,0.0,30.0,0.0
17.770293474197388,4095,0.0,30.0,0.0
17.780563831329346,969,0.0,30.0,0.0
17.790862798690796,4095,0.0,30.0,0.0
17.79575490951538,761,0.0,30.0,0.0
17.807063817977905,4095,0.0,30.0,0.0
17.815816164016724,716,0.0,30.0,0.0
17.830199718475342,4095,0.0,30.0,0.0
17.840583562850952,627,0.0,30.0,0.0
17.845767498016357,4095,0.0,30.0,0.0
17.855809926986694,444,0.0,30.0,0.0
17.862496376037598,4095,0.0,30.0,0.0
17.879036903381348,421,0.0,30.0,0.0
17.884509563446045,4095,0.0,30.0,0.0
17.900309562683105,400,0.0,30.0,0.0
17.910844802856445,4095,0.0,30.0,0.0
17.915785551071167,384,0.0,30.0,0.0
17.93019723892212,4095,0.0,30.0,0.0
17.931195974349976,281,0.0,30.0,0.0
17.946831464767456,4095,0.0,30.0,0.0
17.961029291152954,2967,0.0,30.0,0.0
17.97072744369507,4095,0.0,30.0,0.0
17.97829842567444,4095,0.0,30.0,0.0
17.987184286117554,4095,0.0,30.0,0.0
18.0001163482666,4095,0.0,30.0,0.0
18.007908821105957,4095,0.0,30.0,0.0
18.01584792137146,4095,0.0,30.0,0.0
18.030972242355347,4095,0.0,30.0,0.0
18.041059017181396,4095,0.0,30.0,0.0
18.05029582977295,4095,0.0,30.0,0.0
18.060612440109253,4095,0.0,30.0,0.0
18.07055401802063,4095,0.0,30.0,0.0
18.081161499023438,4095,0.0,30.0,0.0
18.09102439880371,4095,0.0,30.0,0.0
18.100451469421387,4095,0.0,30.0,0.0
18.109116315841675,4095,0.0,30.0,0.0
18.120530605316162,4095,0.0,30.0,0.0
18.130611419677734,4095,0.0,30.0,0.0
18.14102554321289,4095,0.0,30.0,0.0
18.150994062423706,4095,0.0,30.0,0.0
18.161365270614624,4095,0.0,30.0,0.0
18.170742750167847,4095,0.0,30.0,0.0
18.180392742156982,4095,0.0,30.0,0.0
18.190505504608154,4095,0.0,30.0,0.0
18.200130462646484,4095,0.0,30.0,0.0
18.208174228668213,4095,0.0,30.0,0.0
18.220613718032837,4095,0.0,30.0,0.0
18.23095202445984,4095,0.0,30.0,0.0
18.240925073623657,336,0.0,30.0,0.0
18.24624228477478,4095,0.0,30.0,0.0
18.260732889175415,2879,0.0,30.0,0.0
18.26425576210022,4095,0.0,30.0,0.0
18.280715227127075,4095,0.0,30.0,0.0
18.29124402999878,4095,0.0,30.0,0.0
18.29838752746582,4095,0.0,30.0,0.0
18.306424856185913,4095,0.0,30.0,0.0
18.314010620117188,4095,0.0,30.0,0.0
18.329089403152466,4095,0.0,30.0,0.0
18.339097499847412,4095,0.0,30.0,0.0
18.345604181289673,4095,0.0,30.0,0.0
18.355644941329956,4095,0.0,30.0,0.0
18.36564350128174,4095,0.0,30.0,0.0
18.379758596420288,4095,0.0,30.0,0.0
18.390422105789185,4095,0.0,30.0,0.0
18.39914846420288,4095,0.0,30.0,0.0
18.411470413208008,4095,0.0,30.0,0.0
18.41614842414856,4095,0.0,30.0,0.0
18.43014121055603,4095,0.0,30.0,0.0
18.43800687789917,4095,0.0,30.0,0.0
18.445585012435913,4095,0.0,30.0,0.0
18.461357355117798,4095,0.0,30.0,0.0
18.470539331436157,4095,0.0,30.0,0.0
18.48107099533081,4095,0.0,30.0,0.0
18.490566968917847,4095,0.0,30.0,0.0
18.50079083442688,4095,0.0,30.0,0.0
18.50689673423767,4095,0.0,30.0,0.0
18.521182537078857,4095,0.0,30.0,0.0
18.53070592880249,4095,0.0,30.0,0.0
18.541127920150757,4095,0.0,30.0,0.0
18.551024198532104,4095,0.0,30.0,0.0
18.560799598693848,4095,0.0,30.0,0.0
18.5706946849823,4095,0.0,30.0,0.0
18.580323934555054,4095,0.0,30.0,0.0
18.590235233306885,4095,0.0,30.0,0.0
18.600838899612427,4095,0.0,30.0,0.0
18.61103105545044,4095,0.0,30.0,0.0
18.620749711990356,4095,0.0,30.0,0.0
18.63091492652893,4095,0.0,30.0,0.0
18.63807702064514,4095,0.0,30.0,0.0
18.65041184425354,4095,0.0,30.0,0.0
18.661340475082397,4095,0.0,30.0,0.0
18.670210123062134,4095,0.0,30.0,0.0
18.68097686767578,4095,0.0,30.0,0.0
18.69109797477722,4095,0.0,30.0,0.0
18.697900772094727,4095,0.0,30.0,0.0
18.71133852005005,4095,0.0,30.0,0.0
18.72099232673645,4095,0.0,30.0,0.0
18.73092818260193,4095,0.0,30.0,0.0
18.740429401397705,4095,0.0,30.0,0.0
18.750764846801758,4095,0.0,30.0,0.0
18.755553007125854,4095,0.0,30.0,0.0
18.77088737487793,4095,0.0,30.0,0.0
18.78114342689514,4095,0.0,30.0,0.0
18.791024208068848,4095,0.0,30.0,0.0
18.800755977630615,4095,0.0,30.0,0.0
18.811365365982056,4095,0.0,30.0,0.0
18.820894956588745,4095,0.0,30.0,0.0
18.830361366271973,4095,0.0,30.0,0.0
18.83560609817505,4095,0.0,30.0,0.0
18.847252130508423,4095,0.0,30.0,0.0
18.855271816253662,4095,0.0,30.0,0.0
18.865361213684082,4095,0.0,30.0,0.0
18.880937576293945,4095,0.0,30.0,0.0
18.89126205444336,4095,0.0,30.0,0.0
18.89750051498413,4095,0.0,30.0,0.0
18.911390781402588,4095,0.0,30.0,0.0
18.91237783432007,4095,0.0,30.0,0.0
18.923766613006592,4095,0.0,30.0,0.0
18.933895587921143,4095,0.0,30.0,0.0
18.945128202438354,4095,0.0,30.0,0.0
18.958446502685547,4095,0.0,30.0,0.0
18.968592166900635,4095,0.0,30.0,0.0
18.980543851852417,4095,0.0,30.0,0.0
18.991560697555542,4095,0.0,30.0,0.0
18.991560697555542,4095,0.0,30.0,0.0
19.001559019088745,4095,0.0,30.0,0.0
19.020757913589478,4095,0.0,30.0,0.0
19.03044104576111,4095,0.0,30.0,0.0
19.035744667053223,4095,0.0,30.0,0.0
19.047046899795532,4095,0.0,30.0,0.0
19.061309337615967,4095,0.0,30.0,0.0
19.06587266921997,4095,0.0,30.0,0.0
19.07877469062805,4095,0.0,30.0,0.0
19.089847087860107,4095,0.0,30.0,0.0
19.09566855430603,4095,0.0,30.0,0.0
19.10808753967285,4095,0.0,30.0,0.0
19.119630336761475,4095,0.0,30.0,0.0
19.130976676940918,4095,0.0,30.0,0.0
19.131966590881348,4095,0.0,30.0,0.0
19.14161491394043,4095,0.0,30.0,0.0
19.15254306793213,4095,0.0,30.0,0.0
19.162543535232544,4095,0.0,30.0,0.0
19.17359757423401,4095,0.0,30.0,0.0
19.183599948883057,4095,0.0,30.0,0.0
19.195398092269897,4095,0.0,30.0,0.0
19.210943460464478,4095,0.0,30.0,0.0
19.22103714942932,3268,0.0,30.0,0.0
19.23226237297058,4095,0.0,30.0,0.0
19.24096655845642,3041,0.0,30.0,0.0
19.25103235244751,3664,0.0,30.0,0.0
19.261511087417603,4095,0.0,30.0,0.0
19.265397787094116,2671,0.0,30.0,0.0
19.280877590179443,4095,0.0,30.0,0.0
19.280877590179443,2669,0.0,30.0,0.0
19.29841160774231,4095,0.0,30.0,0.0
19.308449268341064,3461,0.0,30.0,0.0
19.318450689315796,4095,0.0,30.0,0.0
19.328449010849,4095,0.0,30.0,0.0
19.33845043182373,4095,0.0,30.0,0.0
19.35121250152588,4095,0.0,30.0,0.0
19.36121940612793,4095,0.0,30.0,0.0
19.371219873428345,4095,0.0,30.0,0.0
19.381219148635864,4095,0.0,30.0,0.0
19.391218185424805,4095,0.0,30.0,0.0
19.40121841430664,4095,0.0,30.0,0.0
19.41122007369995,4095,0.0,30.0,0.0
19.421218872070312,4095,0.0,30.0,0.0
19.43121886253357,4095,0.0,30.0,0.0
19.432796716690063,4095,0.0,30.0,0.0
19.446075201034546,4095,0.0,30.0,0.0
19.46116852760315,4095,0.0,30.0,0.0
19.463720083236694,4095,0.0,30.0,0.0
19.481107234954834,4095,0.0,30.0,0.0
19.488590240478516,4095,0.0,30.0,0.0
19.49584674835205,4095,0.0,30.0,0.0
19.511014938354492,4095,0.0,30.0,0.0
19.511014938354492,4095,0.0,30.0,0.0
19.528685569763184,4095,0.0,30.0,0.0
19.534645318984985,4095,0.0,30.0,0.0
19.55001425743103,4095,0.0,30.0,0.0
19.55770778656006,4095,0.0,30.0,0.0
19.566365242004395,3831,0.0,30.0,0.0
19.581125259399414,4095,0.0,30.0,0.0
19.58939218521118,3575,0.0,30.0,0.0
19.596344232559204,4095,0.0,30.0,0.0
19.61037278175354,3397,0.0,30.0,0.0
19.620025396347046,4095,0.0,30.0,0.0
19.630372524261475,3202,0.0,30.0,0.0
19.641193628311157,4095,0.0,30.0,0.0
19.650985956192017,3054,0.0,30.0,0.0
19.66136622428894,4095,0.0,30.0,0.0
19.671120405197144,2914,0.0,30.0,0.0
19.680420637130737,4095,0.0,30.0,0.0
19.690964460372925,2800,0.0,30.0,0.0
19.697537183761597,4095,0.0,30.0,0.0
19.711142539978027,4095,0.0,30.0,0.0
19.71995449066162,4095,0.0,30.0,0.0
19.729557514190674,4095,0.0,30.0,0.0
19.741042137145996,4095,0.0,30.0,0.0
19.75098705291748,4095,0.0,30.0,0.0
19.761322021484375,4095,0.0,30.0,0.0
19.76594591140747,4095,0.0,30.0,0.0
19.77987241744995,4095,0.0,30.0,0.0
19.788578271865845,4095,0.0,30.0,0.0
19.79638648033142,4095,0.0,30.0,0.0
19.811023235321045,4095,0.0,30.0,0.0
19.81202006340027,4095,0.0,30.0,0.0
19.82216477394104,1889,0.0,30.0,0.0
19.834179639816284,4095,0.0,30.0,0.0
19.844226121902466,1223,0.0,30.0,0.0
19.854222297668457,4095,0.0,30.0,0.0
19.870715141296387,1242,0.0,30.0,0.0
19.880967140197754,4095,0.0,30.0,0.0
19.88709807395935,1403,0.0,30.0,0.0
19.89557933807373,4095,0.0,30.0,0.0
19.911287784576416,1472,0.0,30.0,0.0
19.912287712097168,4095,0.0,30.0,0.0
19.928614139556885,1521,0.0,30.0,0.0
19.94138264656067,4095,0.0,30.0,0.0
19.942378759384155,1582,0.0,30.0,0.0
19.95781922340393,4095,0.0,30.0,0.0
19.966524124145508,1599,0.0,30.0,0.0
19.973259210586548,4095,0.0,30.0,0.0
19.98326849937439,1588,0.0,30.0,0.0
19.996000051498413,4095,0.0,30.0,0.0
20.010969877243042,1563,0.0,30.0,0.0
20.02004337310791,4095,0.0,30.0,0.0
20.031073570251465,1623,0.0,30.0,0.0
20.040281295776367,4095,0.0,30.0,0.0
20.05105996131897,1648,0.0,30.0,0.0
20.061269283294678,4095,0.0,30.0,0.0
20.07115340232849,1687,0.0,30.0,0.0
20.080374479293823,4095,0.0,30.0,0.0
20.090951681137085,1817,0.0,30.0,0.0
20.100192070007324,4095,0.0,30.0,0.0
20.11105751991272,1868,0.0,30.0,0.0
20.120914459228516,4095,0.0,30.0,0.0
20.130492448806763,1657,0.0,30.0,0.0
20.14070153236389,4095,0.0,30.0,0.0
20.150471448898315,1902,0.0,30.0,0.0
20.161141872406006,4095,0.0,30.0,0.0
20.1710422039032,1814,0.0,30.0,0.0
20.180766582489014,4095,0.0,30.0,0.0
20.190122365951538,1674,0.0,30.0,0.0
20.200628519058228,4095,0.0,30.0,0.0
20.211134433746338,1329,0.0,30.0,0.0
20.220697164535522,4095,0.0,30.0,0.0
20.231069564819336,1217,0.0,30.0,0.0
20.240228414535522,4095,0.0,30.0,0.0
20.250250816345215,1125,0.0,30.0,0.0
20.261159896850586,4095,0.0,30.0,0.0
20.263819217681885,1106,0.0,30.0,0.0
20.27963137626648,4095,0.0,30.0,0.0
20.29044795036316,1088,0.0,30.0,0.0
20.295332670211792,4095,0.0,30.0,0.0
20.310792684555054,1043,0.0,30.0,0.0
20.318058729171753,4095,0.0,30.0,0.0
20.33102822303772,1054,0.0,30.0,0.0
20.340221166610718,4095,0.0,30.0,0.0
20.346694946289062,1072,0.0,30.0,0.0
20.361032485961914,4095,0.0,30.0,0.0
20.362035036087036,1072,0.0,30.0,0.0
20.37204909324646,4095,0.0,30.0,0.0
20.38205122947693,1023,0.0,30.0,0.0
20.392051696777344,4095,0.0,30.0,0.0
20.40204882621765,986,0.0,30.0,0.0
20.421190977096558,4095,0.0,30.0,0.0
20.431199073791504,1986,0.0,30.0,0.0
20.44119882583618,4095,0.0,30.0,0.0
20.44286561012268,4095,0.0,30.0,0.0
20.455225944519043,4095,0.0,30.0,0.0
20.46990156173706,3414,0.0,30.0,0.0
20.479299545288086,4095,0.0,30.0,0.0
20.489341974258423,245,0.0,30.0,0.0
20.50080919265747,4095,0.0,30.0,0.0
20.51102614402771,311,0.0,30.0,0.0
20.520946264266968,4095,0.0,30.0,0.0
20.529566526412964,737,0.0,30.0,0.0
20.53911805152893,4095,0.0,30.0,0.0
20.5477135181427,508,0.0,30.0,0.0
20.560962200164795,4095,0.0,30.0,0.0
20.563231468200684,629,0.0,30.0,0.0
20.578542470932007,4095,0.0,30.0,0.0
20.590919971466064,582,0.0,30.0,0.0
20.59383535385132,4095,0.0,30.0,0.0
20.6112060546875,585,0.0,30.0,0.0
20.618719577789307,4095,0.0,30.0,0.0
20.631324291229248,560,0.0,30.0,0.0
20.640958070755005,4095,0.0,30.0,0.0
20.64857292175293,496,0.0,30.0,0.0
20.661271572113037,4095,0.0,30.0,0.0
20.67057228088379,480,0.0,30.0,0.0
20.6797616481781,4095,0.0,30.0,0.0
20.686924934387207,417,0.0,30.0,0.0
20.700244426727295,3653,0.0,30.0,0.0
20.7109637260437,416,0.0,30.0,0.0
20.720887899398804,3162,0.0,30.0,0.0
20.731261253356934,412,0.0,30.0,0.0
20.740880012512207,2890,0.0,30.0,0.0
20.74850606918335,358,0.0,30.0,0.0
20.761223316192627,2413,0.0,30.0,0.0
20.7703754901886,371,0.0,30.0,0.0
20.781205892562866,2150,0.0,30.0,0.0
20.786700010299683,385,0.0,30.0,0.0
20.80102825164795,1856,0.0,30.0,0.0
20.811169862747192,401,0.0,30.0,0.0
20.82002282142639,1535,0.0,30.0,0.0
20.831116914749146,424,0.0,30.0,0.0
20.840357542037964,1292,0.0,30.0,0.0
20.851207971572876,432,0.0,30.0,0.0
20.861221075057983,763,0.0,30.0,0.0
20.870301246643066,436,0.0,30.0,0.0
20.87944531440735,625,0.0,30.0,0.0
20.886481761932373,433,0.0,30.0,0.0
20.90080237388611,510,0.0,30.0,0.0
20.911219596862793,417,0.0,30.0,0.0
20.917328596115112,496,0.0,30.0,0.0
20.930845260620117,327,0.0,30.0,0.0
20.940672636032104,391,0.0,30.0,0.0
20.94630193710327,233,0.0,30.0,0.0
20.954618215560913,206,0.0,30.0,0.0
20.96331548690796,161,0.0,30.0,0.0
20.97915005683899,119,0.0,30.0,0.0
20.986275672912598,141,0.0,30.0,0.0
21.000577449798584,0,0.0,30.0,0.0
21.011186838150024,108,0.0,30.0,0.0
21.01793098449707,0,0.0,30.0,0.0
21.030245065689087,178,0.0,30.0,0.0
21.039108991622925,377,0.0,30.0,0.0
21.047972917556763,80,0.0,30.0,0.0
21.06138277053833,1021,0.0,30.0,0.0
21.07083535194397,194,0.0,30.0,0.0
21.08099341392517,753,0.0,30.0,0.0
21.08899760246277,88,0.0,30.0,0.0
21.094531059265137,546,0.0,30.0,0.0
21.111123085021973,102,0.0,30.0,0.0
21.1153244972229,607,0.0,30.0,0.0
21.12325930595398,112,0.0,30.0,0.0
21.138732194900513,809,0.0,30.0,0.0
21.15047812461853,123,0.0,30.0,0.0
21.16108727455139,1039,0.0,30.0,0.0
21.17111039161682,152,0.0,30.0,0.0
21.18106961250305,4095,0.0,30.0,0.0
21.18907904624939,4095,0.0,30.0,0.0
21.19853448867798,4095,0.0,30.0,0.0
21.210898637771606,1165,0.0,30.0,0.0
21.21508526802063,827,0.0,30.0,0.0
21.23032283782959,4095,0.0,30.0,0.0
21.240540742874146,4095,0.0,30.0,0.0
21.24154233932495,4095,0.0,30.0,0.0
21.25381875038147,2938,0.0,30.0,0.0
21.263834476470947,4095,0.0,30.0,0.0
21.2764573097229,4095,0.0,30.0,0.0
21.286473751068115,4095,0.0,30.0,0.0
21.296475887298584,4095,0.0,30.0,0.0
21.306705951690674,3108,0.0,30.0,0.0
21.311812162399292,3255,0.0,30.0,0.0
21.330650329589844,1145,0.0,30.0,0.0
21.33836531639099,2479,0.0,30.0,0.0
21.345020055770874,0,0.0,30.0,0.0
21.36097812652588,1971,0.0,30.0,0.0
21.37025213241577,0,0.0,30.0,0.0
21.37749695777893,1717,0.0,30.0,0.0
21.387654781341553,0,0.0,30.0,0.0
21.401207447052002,1725,0.0,30.0,0.0
21.41088342666626,0,0.0,30.0,0.0
21.421156406402588,1697,0.0,30.0,0.0
21.430917263031006,0,0.0,30.0,0.0
21.439284563064575,1713,0.0,30.0,0.0
21.447433471679688,0,0.0,30.0,0.0
21.46107792854309,2003,0.0,30.0,0.0
21.468838691711426,0,0.0,30.0,0.0
21.478322505950928,2018,0.0,30.0,0.0
21.485268115997314,0,0.0,30.0,0.0
21.501484155654907,2066,0.0,30.0,0.0
21.511065006256104,0,0.0,30.0,0.0
21.517978191375732,1841,0.0,30.0,0.0
21.53048014640808,0,0.0,30.0,0.0
21.538920402526855,1822,0.0,30.0,0.0
21.54741621017456,0,0.0,30.0,0.0
21.56088948249817,1527,0.0,30.0,0.0
21.570099592208862,0,0.0,30.0,0.0
21.578452587127686,1279,0.0,30.0,0.0
21.59040856361389,0,0.0,30.0,0.0
21.60124707221985,1274,0.0,30.0,0.0
21.610957145690918,0,0.0,30.0,0.0
21.621456146240234,1200,0.0,30.0,0.0
21.631115674972534,0,0.0,30.0,0.0
21.63874840736389,1117,0.0,30.0,0.0
21.646050691604614,0,0.0,30.0,0.0
21.6611967086792,914,0.0,30.0,0.0
21.669355630874634,0,0.0,30.0,0.0
21.681097984313965,879,0.0,30.0,0.0
21.690603494644165,0,0.0,30.0,0.0
21.698055505752563,729,0.0,30.0,0.0
21.710949182510376,0,0.0,30.0,0.0
21.72146487236023,634,0.0,30.0,0.0
21.73059844970703,843,0.0,30.0,0.0
21.73745560646057,4095,0.0,30.0,0.0
21.74515175819397,1957,0.0,30.0,0.0
21.760793924331665,4095,0.0,30.0,0.0
21.76818561553955,1191,0.0,30.0,0.0
21.777891635894775,4095,0.0,30.0,0.0
21.791249752044678,519,0.0,30.0,0.0
21.800077438354492,4095,0.0,30.0,0.0
21.81096363067627,211,0.0,30.0,0.0
21.821199893951416,4095,0.0,30.0,0.0
21.830842971801758,0,0.0,30.0,0.0
21.83719539642334,4095,0.0,30.0,0.0
21.849127292633057,0,0.0,30.0,0.0
21.860989570617676,4095,0.0,30.0,0.0
21.87107753753662,0,0.0,30.0,0.0
21.880144596099854,4095,0.0,30.0,0.0
21.891024112701416,0,0.0,30.0,0.0
21.9010272026062,4095,0.0,30.0,0.0
21.910979986190796,0,0.0,30.0,0.0
21.92091417312622,4095,0.0,30.0,0.0
21.931135654449463,0,0.0,30.0,0.0
21.939112663269043,4095,0.0,30.0,0.0
21.951443195343018,1603,0.0,30.0,0.0
21.961079120635986,4095,0.0,30.0,0.0
21.968786239624023,2159,0.0,30.0,0.0
21.9783992767334,4095,0.0,30.0,0.0
21.990726709365845,2042,0.0,30.0,0.0
21.99938178062439,4095,0.0,30.0,0.0
22.010937213897705,2125,0.0,30.0,0.0
22.02038073539734,4095,0.0,30.0,0.0
22.030866146087646,2180,0.0,30.0,0.0
22.036755800247192,4095,0.0,30.0,0.0
22.05130648612976,2213,0.0,30.0,0.0
22.061007499694824,4095,0.0,30.0,0.0
22.068437337875366,2224,0.0,30.0,0.0
22.078263759613037,4095,0.0,30.0,0.0
22.090533018112183,2214,0.0,30.0,0.0
22.09920620918274,4095,0.0,30.0,0.0
22.111056089401245,2218,0.0,30.0,0.0
22.120214223861694,4095,0.0,30.0,0.0
22.130193948745728,1872,0.0,30.0,0.0
22.13852071762085,4095,0.0,30.0,0.0
22.15127944946289,1456,0.0,30.0,0.0
22.16073989868164,4095,0.0,30.0,0.0
22.16730046272278,1088,0.0,30.0,0.0
22.178374767303467,4095,0.0,30.0,0.0
22.190322160720825,877,0.0,30.0,0.0
22.198050498962402,4095,0.0,30.0,0.0
22.211010694503784,795,0.0,30.0,0.0
22.221047163009644,4095,0.0,30.0,0.0
22.229472160339355,642,0.0,30.0,0.0
22.237464666366577,4095,0.0,30.0,0.0
22.25097393989563,577,0.0,30.0,0.0
22.260892391204834,4095,0.0,30.0,0.0
22.269190549850464,503,0.0,30.0,0.0
22.279202222824097,4095,0.0,30.0,0.0
22.29103446006775,400,0.0,30.0,0.0
22.297794580459595,4095,0.0,30.0,0.0
22.305472135543823,382,0.0,30.0,0.0
22.32088589668274,4095,0.0,30.0,0.0
22.327589750289917,380,0.0,30.0,0.0
22.337238311767578,4095,0.0,30.0,0.0
22.343875408172607,357,0.0,30.0,0.0
22.360981225967407,4095,0.0,30.0,0.0
22.366829872131348,4095,0.0,30.0,0.0
22.381342887878418,4095,0.0,30.0,0.0
22.389877796173096,4095,0.0,30.0,0.0
22.398489952087402,4095,0.0,30.0,0.0
22.40526032447815,4095,0.0,30.0,0.0
22.4205265045166,4095,0.0,30.0,0.0
22.42987823486328,4095,0.0,30.0,0.0
22.436872482299805,4095,0.0,30.0,0.0
22.450320959091187,4095,0.0,30.0,0.0
22.461004972457886,4095,0.0,30.0,0.0
22.467284202575684,4095,0.0,30.0,0.0
22.481414556503296,4095,0.0,30.0,0.0
22.490463733673096,4095,0.0,30.0,0.0
22.498263835906982,4095,0.0,30.0,0.0
22.510758638381958,4095,0.0,30.0,0.0
22.520360946655273,4095,0.0,30.0,0.0
22.531219959259033,4095,0.0,30.0,0.0
22.536690711975098,4095,0.0,30.0,0.0
22.551015853881836,4095,0.0,30.0,0.0
22.560811281204224,4095,0.0,30.0,0.0
22.566604614257812,4095,0.0,30.0,0.0
22.581090450286865,4095,0.0,30.0,0.0
22.58940100669861,4095,0.0,30.0,0.0
22.59820866584778,4095,0.0,30.0,0.0
22.610652685165405,4095,0.0,30.0,0.0
22.620006799697876,4095,0.0,30.0,0.0
22.630380153656006,4095,0.0,30.0,0.0
22.636730194091797,4095,0.0,30.0,0.0
22.651017427444458,4095,0.0,30.0,0.0
22.660605430603027,4095,0.0,30.0,0.0
22.66623544692993,4095,0.0,30.0,0.0
22.680582523345947,4095,0.0,30.0,0.0
22.689176321029663,4095,0.0,30.0,0.0
22.698172569274902,4095,0.0,30.0,0.0
22.712177276611328,3174,0.0,30.0,0.0
22.720873594284058,4095,0.0,30.0,0.0
22.73108196258545,2065,0.0,30.0,0.0
22.7387216091156,4095,0.0,30.0,0.0
22.750513792037964,4095,0.0,30.0,0.0
22.760689973831177,4095,0.0,30.0,0.0
22.771186351776123,2145,0.0,30.0,0.0
22.781184196472168,4095,0.0,30.0,0.0
22.78991174697876,4095,0.0,30.0,0.0
22.80078148841858,4095,0.0,30.0,0.0
22.810694456100464,4095,0.0,30.0,0.0
22.820983409881592,4095,0.0,30.0,0.0
22.830883979797363,4095,0.0,30.0,0.0
22.837493658065796,4095,0.0,30.0,0.0
22.85088872909546,3450,0.0,30.0,0.0
22.860674142837524,4095,0.0,30.0,0.0
22.870656490325928,4095,0.0,30.0,0.0
22.880695581436157,4095,0.0,30.0,0.0
22.889652729034424,4095,0.0,30.0,0.0
22.900836944580078,4095,0.0,30.0,0.0
22.91085171699524,4095,0.0,30.0,0.0
22.92055082321167,4095,0.0,30.0,0.0
22.930758714675903,4095,0.0,30.0,0.0
22.941527128219604,4095,0.0,30.0,0.0
22.95065474510193,4095,0.0,30.0,0.0
22.960672616958618,4095,0.0,30.0,0.0
22.97044801712036,4095,0.0,30.0,0.0
22.981170892715454,4095,0.0,30.0,0.0
22.990771055221558,4095,0.0,30.0,0.0
22.995754718780518,4095,0.0,30.0,0.0
23.005064487457275,4095,0.0,30.0,0.0
23.019118070602417,4095,0.0,30.0,0.0
23.03106665611267,4095,0.0,30.0,0.0
23.041452646255493,4095,0.0,30.0,0.0
23.05084776878357,4095,0.0,30.0,0.0
23.060678482055664,4095,0.0,30.0,0.0
23.071043491363525,4095,0.0,30.0,0.0
23.080735206604004,4095,0.0,30.0,0.0
23.089086055755615,4095,0.0,30.0,0.0
23.100956439971924,4095,0.0,30.0,0.0
23.11084747314453,4095,0.0,30.0,0.0
23.118861198425293,4095,0.0,30.0,0.0
23.12827444076538,4095,0.0,30.0,0.0
23.14120888710022,4095,0.0,30.0,0.0
23.14958167076111,4095,0.0,30.0,0.0
23.160680055618286,4095,0.0,30.0,0.0
23.165180683135986,4095,0.0,30.0,0.0
23.181228160858154,4095,0.0,30.0,0.0
23.189154148101807,4095,0.0,30.0,0.0
23.195918798446655,4095,0.0,30.0,0.0
23.210950136184692,4095,0.0,30.0,0.0
23.211949348449707,4095,0.0,30.0,0.0
23.2286319732666,4095,0.0,30.0,0.0
23.236642122268677,4095,0.0,30.0,0.0
23.249356031417847,4095,0.0,30.0,0.0
23.260963439941406,4095,0.0,30.0,0.0
23.27151846885681,4095,0.0,30.0,0.0
23.280786514282227,4095,0.0,30.0,0.0
23.288657188415527,4095,0.0,30.0,0.0
23.2969753742218,4095,0.0,30.0,0.0
23.310957193374634,4095,0.0,30.0,0.0
23.32019567489624,4095,0.0,30.0,0.0
23.33098006248474,4095,0.0,30.0,0.0
23.340670108795166,4095,0.0,30.0,0.0
23.34998893737793,4095,0.0,30.0,0.0
23.360973596572876,4095,0.0,30.0,0.0
23.37155055999756,4095,0.0,30.0,0.0
23.380956411361694,4095,0.0,30.0,0.0
23.386478185653687,4095,0.0,30.0,0.0
23.396156311035156,4095,0.0,30.0,0.0
23.410486221313477,4095,0.0,30.0,0.0
23.418219804763794,4095,0.0,30.0,0.0
23.42586088180542,4095,0.0,30.0,0.0
23.440356492996216,4095,0.0,30.0,0.0
23.448896169662476,4095,0.0,30.0,0.0
23.46057939529419,4095,0.0,30.0,0.0
23.471160650253296,4095,0.0,30.0,0.0
23.480697631835938,4095,0.0,30.0,0.0
23.48892831802368,4095,0.0,30.0,0.0
23.4961678981781,4095,0.0,30.0,0.0
23.51072669029236,4095,0.0,30.0,0.0
23.51927661895752,4095,0.0,30.0,0.0
23.528082370758057,4095,0.0,30.0,0.0
23.54102849960327,4095,0.0,30.0,0.0
23.551021099090576,4095,0.0,30.0,0.0
23.560617923736572,4095,0.0,30.0,0.0
23.571189165115356,4095,0.0,30.0,0.0
23.580684900283813,4095,0.0,30.0,0.0
23.58812713623047,4095,0.0,30.0,0.0
23.596779108047485,4095,0.0,30.0,0.0
23.611075162887573,4095,0.0,30.0,0.0
23.61886167526245,4095,0.0,30.0,0.0
23.628793478012085,4095,0.0,30.0,0.0
23.641123056411743,4095,0.0,30.0,0.0
23.650986194610596,4095,0.0,30.0,0.0
23.661088228225708,4095,0.0,30.0,0.0
23.67060613632202,4095,0.0,30.0,0.0
23.68078875541687,4095,0.0,30.0,0.0
23.68982434272766,4095,0.0,30.0,0.0
23.701005220413208,4095,0.0,30.0,0.0
23.710941314697266,4095,0.0,30.0,0.0
23.718518495559692,4095,0.0,30.0,0.0
23.72801113128662,4095,0.0,30.0,0.0
23.74074649810791,4095,0.0,30.0,0.0
23.751014232635498,4095,0.0,30.0,0.0
23.760536670684814,4095,0.0,30.0,0.0
23.764526844024658,4095,0.0,30.0,0.0
23.77897071838379,4095,0.0,30.0,0.0
23.788119077682495,4095,0.0,30.0,0.0
23.801438093185425,4095,0.0,30.0,0.0
23.809613704681396,4095,0.0,30.0,0.0
23.817394971847534,4059,0.0,30.0,0.0
23.824994802474976,4095,0.0,30.0,0.0
23.8403160572052,4095,0.0,30.0,0.0
23.849018335342407,4095,0.0,30.0,0.0
23.859055995941162,4095,0.0,30.0,0.0
23.87031650543213,4095,0.0,30.0,0.0
23.878719091415405,4042,0.0,30.0,0.0
23.889288425445557,4095,0.0,30.0,0.0
23.900875091552734,4095,0.0,30.0,0.0
23.910349130630493,4095,0.0,30.0,0.0
23.917070150375366,4095,0.0,30.0,0.0
23.927905797958374,4095,0.0,30.0,0.0
23.94049334526062,4026,0.0,30.0,0.0
23.947715759277344,4095,0.0,30.0,0.0
23.956435918807983,3890,0.0,30.0,0.0
23.96326231956482,4095,0.0,30.0,0.0
23.97846484184265,3721,0.0,30.0,0.0
23.98619031906128,4095,0.0,30.0,0.0
24.000593423843384,3517,0.0,30.0,0.0
24.00924038887024,4095,0.0,30.0,0.0
24.01689577102661,3297,0.0,30.0,0.0
24.02456831932068,4095,0.0,30.0,0.0
24.039888381958008,3088,0.0,30.0,0.0
24.047586679458618,4095,0.0,30.0,0.0
24.055273056030273,2945,0.0,30.0,0.0
24.06396484375,4095,0.0,30.0,0.0
24.080150842666626,2837,0.0,30.0,0.0
24.086933135986328,4095,0.0,30.0,0.0
24.100446701049805,2736,0.0,30.0,0.0
24.11026906967163,4095,0.0,30.0,0.0
24.12027621269226,4095,0.0,30.0,0.0
24.129064559936523,4095,0.0,30.0,0.0
24.140562057495117,4095,0.0,30.0,0.0
24.149294137954712,4095,0.0,30.0,0.0
24.1611385345459,2010,0.0,30.0,0.0
24.170334100723267,4095,0.0,30.0,0.0
24.179059267044067,1754,0.0,30.0,0.0
24.185904026031494,4095,0.0,30.0,0.0
24.20100212097168,2102,0.0,30.0,0.0
24.211177587509155,4095,0.0,30.0,0.0
24.218549489974976,2465,0.0,30.0,0.0
24.23098587989807,4095,0.0,30.0,0.0
24.240503072738647,2490,0.0,30.0,0.0
24.251039266586304,4095,0.0,30.0,0.0
24.261070489883423,2559,0.0,30.0,0.0
24.27022957801819,4095,0.0,30.0,0.0
24.279632806777954,2359,0.0,30.0,0.0
24.286505460739136,4095,0.0,30.0,0.0
24.300918340682983,2000,0.0,30.0,0.0
24.31095290184021,4095,0.0,30.0,0.0
24.318299770355225,2047,0.0,30.0,0.0
24.330714464187622,4095,0.0,30.0,0.0
24.340213298797607,2128,0.0,30.0,0.0
24.348049879074097,4095,0.0,30.0,0.0
24.361348867416382,2167,0.0,30.0,0.0
24.371224880218506,3876,0.0,30.0,0.0
24.381212949752808,2189,0.0,30.0,0.0
24.386348485946655,3093,0.0,30.0,0.0
24.40056800842285,2181,0.0,30.0,0.0
24.41110849380493,2454,0.0,30.0,0.0
24.418115854263306,2161,0.0,30.0,0.0
24.43137550354004,2133,0.0,30.0,0.0
24.43915343284607,2090,0.0,30.0,0.0
24.451189756393433,2053,0.0,30.0,0.0
24.46118450164795,1943,0.0,30.0,0.0
24.470795392990112,1745,0.0,30.0,0.0
24.480005264282227,1677,0.0,30.0,0.0
24.485023736953735,1448,0.0,30.0,0.0
24.500890970230103,1444,0.0,30.0,0.0
24.51099157333374,944,0.0,30.0,0.0
24.516966104507446,1329,0.0,30.0,0.0
24.531035661697388,459,0.0,30.0,0.0
24.540265560150146,1215,0.0,30.0,0.0
24.55020809173584,336,0.0,30.0,0.0
24.56033945083618,1009,0.0,30.0,0.0
24.570561170578003,1243,0.0,30.0,0.0
24.578260898590088,820,0.0,30.0,0.0
24.59160017967224,2830,0.0,30.0,0.0
24.601266384124756,839,0.0,30.0,0.0
24.610448360443115,2357,0.0,30.0,0.0
24.615527629852295,1209,0.0,30.0,0.0
24.631194829940796,2245,0.0,30.0,0.0
24.63768196105957,1291,0.0,30.0,0.0
24.64832615852356,2765,0.0,30.0,0.0
24.66130304336548,1354,0.0,30.0,0.0
24.67031478881836,3148,0.0,30.0,0.0
24.681199073791504,1370,0.0,30.0,0.0
24.691505670547485,3690,0.0,30.0,0.0
24.700389623641968,1355,0.0,30.0,0.0
24.710620164871216,4095,0.0,30.0,0.0
24.716306686401367,1397,0.0,30.0,0.0
24.731125116348267,4095,0.0,30.0,0.0
24.740015506744385,1344,0.0,30.0,0.0
24.75030207633972,4095,0.0,30.0,0.0
24.760552406311035,1344,0.0,30.0,0.0
24.77062964439392,4095,0.0,30.0,0.0
24.777750730514526,1195,0.0,30.0,0.0
24.791481733322144,4095,0.0,30.0,0.0
24.80091691017151,1252,0.0,30.0,0.0
24.810944080352783,4095,0.0,30.0,0.0
24.81634283065796,1200,0.0,30.0,0.0
24.831260442733765,4095,0.0,30.0,0.0
24.83834171295166,1151,0.0,30.0,0.0
24.847387552261353,4095,0.0,30.0,0.0
24.86034893989563,4095,0.0,30.0,0.0
24.870807886123657,4095,0.0,30.0,0.0
24.877792596817017,3399,0.0,30.0,0.0
24.89124321937561,4095,0.0,30.0,0.0
24.899510383605957,4095,0.0,30.0,0.0
24.910004377365112,4095,0.0,30.0,0.0
24.921481609344482,4095,0.0,30.0,0.0
24.93025255203247,4095,0.0,30.0,0.0
24.93787908554077,4095,0.0,30.0,0.0
24.945555448532104,4095,0.0,30.0,0.0
24.9605770111084,4095,0.0,30.0,0.0
24.96854829788208,4095,0.0,30.0,0.0
24.98113775253296,4095,0.0,30.0,0.0
24.989145040512085,4095,0.0,30.0,0.0
24.999243021011353,2224,0.0,30.0,0.0
25.010315656661987,4095,0.0,30.0,0.0
25.02152943611145,500,0.0,30.0,0.0
25.029983520507812,4095,0.0,30.0,0.0
25.041197299957275,629,0.0,30.0,0.0
25.05120277404785,4095,0.0,30.0,0.0
25.060681104660034,604,0.0,30.0,0.0
25.06836223602295,4095,0.0,30.0,0.0
25.078408002853394,606,0.0,30.0,0.0
25.084076166152954,4095,0.0,30.0,0.0
25.09908390045166,614,0.0,30.0,0.0
25.11092519760132,4095,0.0,30.0,0.0
25.12133026123047,589,0.0,30.0,0.0
25.130940675735474,4095,0.0,30.0,0.0
25.138407945632935,416,0.0,30.0,0.0
25.151047229766846,4095,0.0,30.0,0.0
25.16057062149048,299,0.0,30.0,0.0
25.16817307472229,4095,0.0,30.0,0.0
25.17903470993042,310,0.0,30.0,0.0
25.190131425857544,4095,0.0,30.0,0.0
25.20034956932068,304,0.0,30.0,0.0
25.2101092338562,3759,0.0,30.0,0.0
25.22120237350464,313,0.0,30.0,0.0
25.23103976249695,3346,0.0,30.0,0.0
25.238276958465576,323,0.0,30.0,0.0
25.24619460105896,2939,0.0,30.0,0.0
25.260923624038696,334,0.0,30.0,0.0
25.268844604492188,3242,0.0,30.0,0.0
25.279025316238403,343,0.0,30.0,0.0
25.291055917739868,2975,0.0,30.0,0.0
25.301188468933105,313,0.0,30.0,0.0
25.310737133026123,2931,0.0,30.0,0.0
25.321038484573364,327,0.0,30.0,0.0
25.328613996505737,2962,0.0,30.0,0.0
25.337968111038208,342,0.0,30.0,0.0
25.350813388824463,2752,0.0,30.0,0.0
25.360323429107666,370,0.0,30.0,0.0
25.36869478225708,3798,0.0,30.0,0.0
25.377756118774414,417,0.0,30.0,0.0
25.390677213668823,4095,0.0,30.0,0.0
25.39899468421936,415,0.0,30.0,0.0
25.411068439483643,4053,0.0,30.0,0.0
25.420608043670654,336,0.0,30.0,0.0
25.429245948791504,1984,0.0,30.0,0.0
25.438859224319458,320,0.0,30.0,0.0
25.45154047012329,857,0.0,30.0,0.0
25.46094799041748,431,0.0,30.0,0.0
25.467496871948242,940,0.0,30.0,0.0
25.47776222229004,368,0.0,30.0,0.0
25.490699291229248,1444,0.0,30.0,0.0
25.498173475265503,245,0.0,30.0,0.0
25.510993719100952,1856,0.0,30.0,0.0
25.52066421508789,182,0.0,30.0,0.0
25.530808687210083,2302,0.0,30.0,0.0
25.537875652313232,170,0.0,30.0,0.0
25.551239252090454,1976,0.0,30.0,0.0
25.560627460479736,155,0.0,30.0,0.0
25.567285776138306,1781,0.0,30.0,0.0
25.57777690887451,401,0.0,30.0,0.0
25.59043002128601,4095,0.0,30.0,0.0
25.59799838066101,3613,0.0,30.0,0.0
25.610872983932495,4095,0.0,30.0,0.0
25.620174169540405,3273,0.0,30.0,0.0
25.62788963317871,4095,0.0,30.0,0.0
25.636683225631714,0,0.0,30.0,0.0
25.651153564453125,4095,0.0,30.0,0.0
25.660996913909912,3312,0.0,30.0,0.0
25.66705012321472,4095,0.0,30.0,0.0
25.68073582649231,4095,0.0,30.0,0.0
25.683655261993408,4095,0.0,30.0,0.0
25.697760820388794,1745,0.0,30.0,0.0
25.710219383239746,3433,0.0,30.0,0.0
25.721150636672974,509,0.0,30.0,0.0
25.728987455368042,2792,0.0,30.0,0.0
25.737247228622437,272,0.0,30.0,0.0
25.7513689994812,3222,0.0,30.0,0.0
25.76096773147583,10,0.0,30.0,0.0
25.77131700515747,3318,0.0,30.0,0.0
25.781232357025146,0,0.0,30.0,0.0
25.790865182876587,3374,0.0,30.0,0.0
25.800945043563843,0,0.0,30.0,0.0
25.810940980911255,3178,0.0,30.0,0.0
25.821152925491333,0,0.0,30.0,0.0
25.830692291259766,2977,0.0,30.0,0.0
25.840110301971436,0,0.0,30.0,0.0
25.850364446640015,2800,0.0,30.0,0.0
25.859944343566895,0,0.0,30.0,0.0
25.8700008392334,2418,0.0,30.0,0.0
25.880141735076904,0,0.0,30.0,0.0
25.890872955322266,2271,0.0,30.0,0.0
25.9004065990448,0,0.0,30.0,0.0
25.911022186279297,1987,0.0,30.0,0.0
25.921139240264893,0,0.0,30.0,0.0
25.930411338806152,1807,0.0,30.0,0.0
25.940553426742554,0,0.0,30.0,0.0
25.950175762176514,1685,0.0,30.0,0.0
25.960846185684204,8,0.0,30.0,0.0
25.97116732597351,1588,0.0,30.0,0.0
25.981234312057495,18,0.0,30.0,0.0
25.990392923355103,1531,0.0,30.0,0.0
26.000211477279663,108,0.0,30.0,0.0
26.010914087295532,1386,0.0,30.0,0.0
26.020338535308838,65,0.0,30.0,0.0
26.032426595687866,1322,0.0,30.0,0.0
26.04077649116516,166,0.0,30.0,0.0
26.05097532272339,1127,0.0,30.0,0.0
26.06046748161316,463,0.0,30.0,0.0
26.06993269920349,1265,0.0,30.0,0.0
26.08077120780945,404,0.0,30.0,0.0
26.08910369873047,995,0.0,30.0,0.0
26.100269079208374,192,0.0,30.0,0.0
26.10983681678772,803,0.0,30.0,0.0
26.12090229988098,142,0.0,30.0,0.0
26.130539417266846,666,0.0,30.0,0.0
26.137138843536377,743,0.0,30.0,0.0
26.150631189346313,4095,0.0,30.0,0.0
26.160870790481567,1889,0.0,30.0,0.0
26.167715311050415,4095,0.0,30.0,0.0
26.18061923980713,1054,0.0,30.0,0.0
26.189968585968018,4095,0.0,30.0,0.0
26.200947999954224,504,0.0,30.0,0.0
26.21054434776306,4095,0.0,30.0,0.0
26.220746517181396,141,0.0,30.0,0.0
26.230907440185547,4095,0.0,30.0,0.0
26.23516297340393,0,0.0,30.0,0.0
26.250524759292603,4095,0.0,30.0,0.0
26.26014280319214,0,0.0,30.0,0.0
26.27092432975769,4095,0.0,30.0,0.0
26.280807733535767,0,0.0,30.0,0.0
26.291086196899414,4095,0.0,30.0,0.0
26.297174215316772,0,0.0,30.0,0.0
26.31099247932434,4095,0.0,30.0,0.0
26.32061743736267,0,0.0,30.0,0.0
26.33071279525757,4095,0.0,30.0,0.0
26.336771488189697,0,0.0,30.0,0.0
26.35113000869751,4095,0.0,30.0,0.0
26.36025309562683,0,0.0,30.0,0.0
26.366166591644287,4095,0.0,30.0,0.0
26.381197690963745,1369,0.0,30.0,0.0
26.389548540115356,4095,0.0,30.0,0.0
26.397436380386353,1706,0.0,30.0,0.0
26.41108512878418,4095,0.0,30.0,0.0
26.42084550857544,1699,0.0,30.0,0.0
26.427703380584717,4095,0.0,30.0,0.0
26.441434144973755,1356,0.0,30.0,0.0
26.449998378753662,4095,0.0,30.0,0.0
26.460869550704956,1610,0.0,30.0,0.0
26.468153476715088,4095,0.0,30.0,0.0
26.48064398765564,901,0.0,30.0,0.0
26.49123477935791,4095,0.0,30.0,0.0
26.5006844997406,700,0.0,30.0,0.0
26.510831356048584,4095,0.0,30.0,0.0
26.519926071166992,256,0.0,30.0,0.0
26.528431177139282,4095,0.0,30.0,0.0
26.534547567367554,0,0.0,30.0,0.0
26.549739360809326,4095,0.0,30.0,0.0
26.56106162071228,240,0.0,30.0,0.0
26.56615376472473,4095,0.0,30.0,0.0
26.58049464225769,0,0.0,30.0,0.0
26.591262817382812,4095,0.0,30.0,0.0
26.595741510391235,0,0.0,30.0,0.0
26.611186742782593,4095,0.0,30.0,0.0
26.619734525680542,0,0.0,30.0,0.0
26.62975287437439,4095,0.0,30.0,0.0
26.641244649887085,285,0.0,30.0,0.0
26.64944100379944,4095,0.0,30.0,0.0
26.65947937965393,0,0.0,30.0,0.0
26.66483187675476,4095,0.0,30.0,0.0
26.680585622787476,274,0.0,30.0,0.0
26.691037893295288,4095,0.0,30.0,0.0
26.70051383972168,257,0.0,30.0,0.0
26.710554122924805,4095,0.0,30.0,0.0
26.71847367286682,148,0.0,30.0,0.0
26.727377891540527,4095,0.0,30.0,0.0
26.741145849227905,91,0.0,30.0,0.0
26.749274969100952,4095,0.0,30.0,0.0
26.75718855857849,42,0.0,30.0,0.0
26.77153182029724,4095,0.0,30.0,0.0
26.78116512298584,16,0.0,30.0,0.0
26.79148244857788,4095,0.0,30.0,0.0
26.795279502868652,27,0.0,30.0,0.0
26.810943126678467,4095,0.0,30.0,0.0
26.8210928440094,0,0.0,30.0,0.0
26.82635807991028,4095,0.0,30.0,0.0
26.835002422332764,0,0.0,30.0,0.0
26.84903907775879,4095,0.0,30.0,0.0
26.85703420639038,0,0.0,30.0,0.0
26.871506452560425,4095,0.0,30.0,0.0
26.879700899124146,0,0.0,30.0,0.0
26.890381813049316,4095,0.0,30.0,0.0
26.895700693130493,0,0.0,30.0,0.0
26.910109519958496,4095,0.0,30.0,0.0
26.918111324310303,2,0.0,30.0,0.0
26.926629543304443,4095,0.0,30.0,0.0
26.940306186676025,289,0.0,30.0,0.0
26.949785709381104,4095,0.0,30.0,0.0
26.9609112739563,1029,0.0,30.0,0.0
26.971120357513428,4095,0.0,30.0,0.0
26.971120357513428,1371,0.0,30.0,0.0
26.989564180374146,4095,0.0,30.0,0.0
26.99487566947937,1412,0.0,30.0,0.0
27.011173725128174,4095,0.0,30.0,0.0
27.01793885231018,1411,0.0,30.0,0.0
27.025519371032715,4095,0.0,30.0,0.0
27.040853023529053,1459,0.0,30.0,0.0
27.048649072647095,4095,0.0,30.0,0.0
27.057363271713257,4095,0.0,30.0,0.0
27.070667505264282,4095,0.0,30.0,0.0
27.07925295829773,4095,0.0,30.0,0.0
27.0869402885437,4095,0.0,30.0,0.0
27.094698667526245,4095,0.0,30.0,0.0
27.11093306541443,4095,0.0,30.0,0.0
27.120192527770996,4095,0.0,30.0,0.0
27.13036036491394,4095,0.0,30.0,0.0
27.14068102836609,4095,0.0,30.0,0.0
27.14843726158142,4095,0.0,30.0,0.0
27.16100239753723,4095,0.0,30.0,0.0
27.170502424240112,4095,0.0,30.0,0.0
27.1779842376709,4095,0.0,30.0,0.0
27.187071800231934,4095,0.0,30.0,0.0
27.19335651397705,4095,0.0,30.0,0.0
27.209747552871704,4095,0.0,30.0,0.0
27.218456029891968,4095,0.0,30.0,0.0
27.22542643547058,4095,0.0,30.0,0.0
27.240519285202026,4095,0.0,30.0,0.0
27.251006603240967,4095,0.0,30.0,0.0
27.256152153015137,4095,0.0,30.0,0.0
27.263640880584717,4095,0.0,30.0,0.0
27.278869152069092,4095,0.0,30.0,0.0
27.28660750389099,4095,0.0,30.0,0.0
27.296230792999268,4095,0.0,30.0,0.0
27.30957293510437,4095,0.0,30.0,0.0
27.31723642349243,4095,0.0,30.0,0.0
27.33016538619995,4095,0.0,30.0,0.0
27.340948581695557,4095,0.0,30.0,0.0
27.351184606552124,4095,0.0,30.0,0.0
27.360904932022095,4095,0.0,30.0,0.0
27.36425018310547,4095,0.0,30.0,0.0
27.378621101379395,4095,0.0,30.0,0.0
27.387653827667236,4095,0.0,30.0,0.0
27.401074647903442,4095,0.0,30.0,0.0
27.410962343215942,4095,0.0,30.0,0.0
27.417036533355713,4095,0.0,30.0,0.0
27.42466640472412,4095,0.0,30.0,0.0
27.439990043640137,4095,0.0,30.0,0.0
27.448888063430786,4095,0.0,30.0,0.0
27.46059775352478,4095,0.0,30.0,0.0
27.470859050750732,4095,0.0,30.0,0.0
27.47880482673645,4095,0.0,30.0,0.0
27.487032890319824,4095,0.0,30.0,0.0
27.50049662590027,4095,0.0,30.0,0.0
27.510519981384277,4095,0.0,30.0,0.0
27.51778268814087,4095,0.0,30.0,0.0
27.530585289001465,4095,0.0,30.0,0.0
27.540761470794678,4095,0.0,30.0,0.0
27.551038026809692,4095,0.0,30.0,0.0
27.560832262039185,4095,0.0,30.0,0.0
27.570390224456787,4095,0.0,30.0,0.0
27.57923913002014,4095,0.0,30.0,0.0
27.585832595825195,4095,0.0,30.0,0.0
27.600480794906616,4095,0.0,30.0,0.0
27.610280990600586,4095,0.0,30.0,0.0
27.616695880889893,4095,0.0,30.0,0.0
27.631333112716675,4095,0.0,30.0,0.0
27.63950800895691,4095,0.0,30.0,0.0
27.64726710319519,4095,0.0,30.0,0.0
27.655900478363037,4095,0.0,30.0,0.0
27.670260190963745,4095,0.0,30.0,0.0
27.677973747253418,4095,0.0,30.0,0.0
27.686596870422363,4095,0.0,30.0,0.0
27.701255321502686,4095,0.0,30.0,0.0
27.711270809173584,4095,0.0,30.0,0.0
27.718114376068115,4095,0.0,30.0,0.0
27.730921983718872,4095,0.0,30.0,0.0
27.739847660064697,4095,0.0,30.0,0.0
27.74709391593933,4095,0.0,30.0,0.0
27.760730981826782,4095,0.0,30.0,0.0
27.770984411239624,4095,0.0,30.0,0.0
27.780893325805664,4095,0.0,30.0,0.0
27.788068294525146,4095,0.0,30.0,0.0
27.800809621810913,4095,0.0,30.0,0.0
27.81065535545349,4095,0.0,30.0,0.0
27.81820321083069,4095,0.0,30.0,0.0
27.8305881023407,4095,0.0,30.0,0.0
27.84024739265442,4095,0.0,30.0,0.0
27.84814429283142,4095,0.0,30.0,0.0
27.86076807975769,4095,0.0,30.0,0.0
27.871204614639282,4095,0.0,30.0,0.0
27.877692699432373,4095,0.0,30.0,0.0
27.886215925216675,4095,0.0,30.0,0.0
27.900644063949585,4095,0.0,30.0,0.0
27.9108624458313,4095,0.0,30.0,0.0
27.916956424713135,4095,0.0,30.0,0.0
27.927343130111694,4095,0.0,30.0,0.0
27.938843250274658,4095,0.0,30.0,0.0
27.946842432022095,4095,0.0,30.0,0.0
27.961260318756104,4095,0.0,30.0,0.0
27.968621730804443,4095,0.0,30.0,0.0
27.979913234710693,4095,0.0,30.0,0.0
27.990389347076416,4095,0.0,30.0,0.0
28.00073766708374,4095,0.0,30.0,0.0
28.01098084449768,4095,0.0,30.0,0.0
28.017515420913696,4095,0.0,30.0,0.0
28.027193546295166,4095,0.0,30.0,0.0
28.03869915008545,4095,0.0,30.0,0.0
28.046664714813232,4095,0.0,30.0,0.0
28.061123847961426,4095,0.0,30.0,0.0
28.070391178131104,4095,0.0,30.0,0.0
28.077070713043213,4095,0.0,30.0,0.0
28.091536283493042,4095,0.0,30.0,0.0
28.10002064704895,4095,0.0,30.0,0.0
28.107671976089478,4095,0.0,30.0,0.0
28.115405559539795,4095,0.0,30.0,0.0
28.130948305130005,4095,0.0,30.0,0.0
28.13175678253174,4095,0.0,30.0,0.0
28.14719867706299,4095,0.0,30.0,0.0
28.160263299942017,4095,0.0,30.0,0.0
28.168530225753784,4095,0.0,30.0,0.0
28.176704168319702,4095,0.0,30.0,0.0
28.190160274505615,4095,0.0,30.0,0.0
28.199311017990112,4095,0.0,30.0,0.0
28.21061944961548,4095,0.0,30.0,0.0
28.221389293670654,4095,0.0,30.0,0.0
28.230608701705933,4095,0.0,30.0,0.0
28.237622261047363,4095,0.0,30.0,0.0
28.245502471923828,4095,0.0,30.0,0.0
28.26118493080139,4095,0.0,30.0,0.0
28.268388986587524,4095,0.0,30.0,0.0
28.27818274497986,4095,0.0,30.0,0.0
28.284055709838867,4095,0.0,30.0,0.0
28.301251649856567,4095,0.0,30.0,0.0
28.308249950408936,4095,0.0,30.0,0.0
28.32153081893921,4095,0.0,30.0,0.0
28.32977819442749,4095,0.0,30.0,0.0
28.338483333587646,4095,0.0,30.0,0.0
28.345131158828735,4095,0.0,30.0,0.0
28.360441207885742,4095,0.0,30.0,0.0
28.368114233016968,4095,0.0,30.0,0.0
28.375865936279297,4095,0.0,30.0,0.0
28.383837938308716,4095,0.0,30.0,0.0
28.39880132675171,4095,0.0,30.0,0.0
28.410502195358276,4095,0.0,30.0,0.0
28.421139001846313,4095,0.0,30.0,0.0
28.42957067489624,4095,0.0,30.0,0.0
28.437291383743286,4095,0.0,30.0,0.0
28.451059579849243,4095,0.0,30.0,0.0
28.46125292778015,4095,0.0,30.0,0.0
28.46793007850647,4095,0.0,30.0,0.0
28.47698140144348,4095,0.0,30.0,0.0
28.49111771583557,4095,0.0,30.0,0.0
28.501219034194946,4095,0.0,30.0,0.0
28.50638437271118,4095,0.0,30.0,0.0
28.515132188796997,4095,0.0,30.0,0.0
28.530163764953613,4095,0.0,30.0,0.0
28.54102373123169,4095,0.0,30.0,0.0
28.545676708221436,4095,0.0,30.0,0.0
28.559999704360962,4095,0.0,30.0,0.0
28.570241689682007,4095,0.0,30.0,0.0
28.581168174743652,4095,0.0,30.0,0.0
28.591100454330444,4095,0.0,30.0,0.0
28.60022211074829,4095,0.0,30.0,0.0
28.610109090805054,4095,0.0,30.0,0.0
28.620388746261597,4095,0.0,30.0,0.0
28.630367040634155,4095,0.0,30.0,0.0
28.637369871139526,4095,0.0,30.0,0.0
28.64575719833374,4095,0.0,30.0,0.0
28.660404682159424,4095,0.0,30.0,0.0
28.67118239402771,4095,0.0,30.0,0.0
28.677252292633057,4095,0.0,30.0,0.0
28.691123247146606,4095,0.0,30.0,0.0
28.698155164718628,4095,0.0,30.0,0.0
28.71024751663208,4095,0.0,30.0,0.0
28.721208095550537,4095,0.0,30.0,0.0
28.730247735977173,4095,0.0,30.0,0.0
28.740221977233887,4095,0.0,30.0,0.0
28.750232696533203,4095,0.0,30.0,0.0
28.760244846343994,4095,0.0,30.0,0.0
28.771065711975098,4095,0.0,30.0,0.0
28.7811062335968,4095,0.0,30.0,0.0
28.791064739227295,4095,0.0,30.0,0.0
28.800092458724976,4095,0.0,30.0,0.0
28.811073780059814,4095,0.0,30.0,0.0
28.820091247558594,4095,0.0,30.0,0.0
28.830673456192017,4095,0.0,30.0,0.0
28.841087341308594,4095,0.0,30.0,0.0
28.85101580619812,4095,0.0,30.0,0.0
28.860931873321533,4095,0.0,30.0,0.0
28.87064552307129,4095,0.0,30.0,0.0
28.87704849243164,4095,0.0,30.0,0.0
28.89109444618225,4095,0.0,30.0,0.0
28.89475417137146,4095,0.0,30.0,0.0
28.909422397613525,4095,0.0,30.0,0.0
28.92107605934143,4095,0.0,30.0,0.0
28.93022918701172,4095,0.0,30.0,0.0
28.940236568450928,4095,0.0,30.0,0.0
28.951196432113647,4095,0.0,30.0,0.0
28.96023178100586,4095,0.0,30.0,0.0
28.970208406448364,4095,0.0,30.0,0.0
28.98006582260132,4095,0.0,30.0,0.0
28.99110507965088,4095,0.0,30.0,0.0
29.000064849853516,4095,0.0,30.0,0.0
29.011101007461548,4095,0.0,30.0,0.0
29.02006459236145,4095,0.0,30.0,0.0
29.03006625175476,4095,0.0,30.0,0.0
29.03414249420166,4095,0.0,30.0,0.0
29.050568103790283,4095,0.0,30.0,0.0
29.06064486503601,4095,0.0,30.0,0.0
29.07109022140503,4095,0.0,30.0,0.0
29.081075191497803,4095,0.0,30.0,0.0
29.09010338783264,4095,0.0,30.0,0.0
29.10007953643799,4095,0.0,30.0,0.0
29.11007857322693,4095,0.0,30.0,0.0
29.121098279953003,4095,0.0,30.0,0.0
29.13105010986328,4095,0.0,30.0,0.0
29.140065908432007,4095,0.0,30.0,0.0
29.151037454605103,4095,0.0,30.0,0.0
29.160064935684204,4095,0.0,30.0,0.0
29.171053171157837,4095,0.0,30.0,0.0
29.18108034133911,4095,0.0,30.0,0.0
29.191049814224243,4095,0.0,30.0,0.0
29.200066089630127,4095,0.0,30.0,0.0
29.211071491241455,4095,0.0,30.0,0.0
29.220065116882324,4095,0.0,30.0,0.0
29.231070280075073,4095,0.0,30.0,0.0
29.240046739578247,4095,0.0,30.0,0.0
29.24317717552185,4095,0.0,30.0,0.0
29.260367393493652,4095,0.0,30.0,0.0
29.27013635635376,4095,0.0,30.0,0.0
29.28002619743347,4095,0.0,30.0,0.0
29.28319501876831,4095,0.0,30.0,0.0
29.294773817062378,4095,0.0,30.0,0.0
29.310871124267578,4095,0.0,30.0,0.0
29.32102084159851,4095,0.0,30.0,0.0
29.331120014190674,4095,0.0,30.0,0.0
29.340126752853394,4095,0.0,30.0,0.0
29.351288557052612,4095,0.0,30.0,0.0
29.36118984222412,4095,0.0,30.0,0.0
29.371508598327637,4095,0.0,30.0,0.0
29.38119602203369,4095,0.0,30.0,0.0
29.38119602203369,4095,0.0,30.0,0.0
29.401169300079346,4095,0.0,30.0,0.0
29.411113023757935,4095,0.0,30.0,0.0
29.42123770713806,4095,0.0,30.0,0.0
29.430205583572388,4095,0.0,30.0,0.0
29.440207719802856,4095,0.0,30.0,0.0
29.45019793510437,4095,0.0,30.0,0.0
29.460285425186157,4095,0.0,30.0,0.0
29.467795372009277,4095,0.0,30.0,0.0
29.476202249526978,4095,0.0,30.0,0.0
29.491241931915283,4095,0.0,30.0,0.0
29.50115728378296,4095,0.0,30.0,0.0
29.51051950454712,4095,0.0,30.0,0.0
29.511524438858032,4095,0.0,30.0,0.0
29.531254053115845,4095,0.0,30.0,0.0
29.540236711502075,4095,0.0,30.0,0.0
29.550209760665894,4095,0.0,30.0,0.0
29.560461044311523,4095,0.0,30.0,0.0
29.566574335098267,4095,0.0,30.0,0.0
29.581268310546875,4095,0.0,30.0,0.0
29.590198040008545,4095,0.0,30.0,0.0
29.601206064224243,4095,0.0,30.0,0.0
29.61022663116455,4095,0.0,30.0,0.0
29.621196031570435,4095,0.0,30.0,0.0
29.630213499069214,4095,0.0,30.0,0.0
29.640177726745605,4095,0.0,30.0,0.0
29.650075674057007,4095,0.0,30.0,0.0
29.660053253173828,4095,0.0,30.0,0.0
29.67058563232422,4095,0.0,30.0,0.0
29.680963277816772,4095,0.0,30.0,0.0
29.690058946609497,4095,0.0,30.0,0.0
29.701030731201172,4095,0.0,30.0,0.0
29.710397481918335,4095,0.0,30.0,0.0
29.719433307647705,4095,0.0,30.0,0.0
29.726924657821655,4095,0.0,30.0,0.0
29.739991903305054,4095,0.0,30.0,0.0
29.75101137161255,4095,0.0,30.0,0.0
29.751999855041504,4095,0.0,30.0,0.0
29.77104926109314,4095,0.0,30.0,0.0
29.780040740966797,4095,0.0,30.0,0.0
29.79106307029724,4095,0.0,30.0,0.0
29.80005407333374,4095,0.0,30.0,0.0
29.811053037643433,4095,0.0,30.0,0.0
29.820038318634033,4095,0.0,30.0,0.0
29.831050395965576,4095,0.0,30.0,0.0
29.8400616645813,4095,0.0,30.0,0.0
29.851022720336914,2883,0.0,30.0,0.0
29.860078811645508,4095,0.0,30.0,0.0
29.870073556900024,3477,0.0,30.0,0.0
29.880154132843018,4095,0.0,30.0,0.0
29.88475489616394,3750,0.0,30.0,0.0
29.8960919380188,4095,0.0,30.0,0.0
29.909425497055054,4095,0.0,30.0,0.0
29.92105197906494,4095,0.0,30.0,0.0
29.92701745033264,4031,0.0,30.0,0.0
29.941076040267944,4095,0.0,30.0,0.0
29.95102858543396,3679,0.0,30.0,0.0
29.96106266975403,4095,0.0,30.0,0.0
29.97101879119873,3220,0.0,30.0,0.0
29.981045246124268,4095,0.0,30.0,0.0
29.9910306930542,2830,0.0,30.0,0.0
29.992019176483154,4095,0.0,30.0,0.0
