Timestamp,EMG Value,massage_speed,massage_duration,relaxment_level
0.006539106,0,0,0,0
0.016530991,0,0,0,0
0.026559591,456,0,0,0
0.036617517,0,0,0,0
0.046605825,120,0,0,0
0.056675434,134,0,0,0
0.066668749,0,0,0,0
0.076647758,567,0,0,0
0.086600542,0,0,0,0
0.096668005,567,0,0,0
0.106672525,356,0,0,0
0.116592407,0,0,0,0
0.126596689,785,0,0,0
0.136429071,0,0,0,0
0.146448135,345,0,0,0
0.156433821,0,0,0,0
0.166424274,215,0,0,0
0.176450729,0,0,0,0
0.186449289,355,0,0,0
0.196423769,0,0,0,0
0.206408024,543,0,0,0
0.216380358,346,0,0,0
0.226354122,178,0,0,0
0.236374378,0,0,0,0
0.246455193,0,0,0,0
0.256449461,0,0,0,0
0.266423464,0,0,0,0
0.276423454,0,0,0,0
0.286449432,745,0,0,0
0.296449423,0,0,0,0
0.306423426,346,0,0,0
0.316405058,0,0,0,0
0.326450586,721,0,0,0
0.336423159,0,0,0,0
0.346449852,357,0,0,0
0.356450319,543,0,0,0
0.366449833,0,0,0,0
0.376431227,812,0,0,0
0.386449814,0,0,0,0
0.396449327,208,0,0,0
0.406424761,0,0,0,0
0.416406155,341,0,0,0
0.426383734,0,0,0,0
0.436445713,725,0,0,0
0.446433544,0,0,0,0
0.456463099,0,0,0,0
0.466420889,0,0,0,0
0.476431131,0,0,0,0
0.486457586,567,0,0,0
0.496460915,0,0,0,0
0.506423473,0,0,0,0
0.516462803,142,0,0,0
0.526628256,0,0,0,0
0.536633253,571,0,0,0
0.546622753,0,0,0,0
0.556657314,210,0,0,0
0.566638947,0,0,0,0
0.575780869,319,0,0,0
0.586428165,0,0,0,0
0.596445799,911,0,0,0
0.606472731,0,0,0,0
0.616446257,361,0,0,0
0.626464844,0,0,0,0
0.63660121,201,0,0,0
0.645608902,199,0,0,0
0.65658617,0,0,0,0
0.666588783,0,0,0,0
0.67557025,0,0,0,0
0.686630011,0,0,0,0
0.696676254,0,0,0,0
0.705936909,0,0,0,0
0.716589212,0,0,0,0
0.725657225,0,0,0,0
0.736477613,0,0,0,0
0.746623993,0,0,0,0
0.756585121,0,0,0,0
0.766631603,0,0,0,0
0.775613308,0,0,0,0
0.786584854,0,0,0,0
0.796602011,0,0,0,0
0.80558157,0,0,0,0
0.816726685,0,0,0,0
0.825707912,0,0,0,0
0.83684516,0,0,0,0
0.846595526,0,0,0,0
0.855883837,0,0,0,0
0.866557598,0,0,0,0
0.876528025,0,0,0,0
0.886620998,0,0,0,0
0.896632671,0,0,0,0
0.90663743,0,0,0,0
0.916639566,0,0,0,0
0.925619602,0,0,0,0
0.936639547,0,0,0,0
0.946346998,0,0,0,0
0.956372023,0,0,0,0
0.966863632,0,0,0,0
0.97584486,0,0,0,0
0.986617804,0,0,0,0
0.996669054,0,0,0,0
1.006570816,0,0,0,0
1.016851902,0,0,0,0
1.025832415,0,0,0,0
1.036845922,0,0,0,0
1.046753645,0,0,0,0
1.055733919,0,0,0,0
1.065877199,0,0,0,0
1.075681925,0,0,0,0
1.085739374,0,0,0,0
1.096792221,0,0,0,0
1.105600595,0,0,0,0
1.116648197,0,0,0,0
1.125805855,0,0,0,0
1.136789799,0,0,0,0
1.146754742,0,0,0,0
1.156590223,0,0,0,0
1.166632414,0,0,0,0
1.176541805,0,0,0,0
1.186587334,0,0,0,0
1.196799517,0,0,0,0
1.206620693,0,0,0,0
1.21663928,0,0,0,0
1.226442337,0,0,0,0
1.236631393,762,0,0,0
1.246685028,798,0,0,0
1.257082939,554,0,0,0
1.266754389,0,0,0,0
1.275861025,1339,0,0,0
1.286754608,1270,0,0,0
1.296465874,186,0,0,0
1.306707382,0,0,0,0
1.316758871,1890,0,0,0
1.325740576,176,0,0,0
1.336863041,0,0,0,0
1.346617699,1189,0,0,0
1.356941462,573,0,0,0
1.366923332,0,0,0,0
1.376800776,1813,0,0,0
1.386294842,702,0,0,0
1.395857334,0,0,0,0
1.405781507,2496,0,0,0
1.416699171,240,0,0,0
1.426672935,0,0,0,0
1.436598778,1323,0,0,0
1.445620537,0,0,0,0
1.456579924,0,0,0,0
1.46656394,1328,0,0,0
1.476531029,4,0,0,0
1.486458063,0,0,0,0
1.49649334,2457,0,0,0
1.506761551,567,0,0,0
1.515744209,0,0,0,0
1.525886059,1696,0,0,0
1.536841869,861,0,0,0
1.545822859,0,0,0,0
1.556793928,0,0,0,0
1.566623688,1355,0,0,0
1.576601744,613,0,0,0
1.586258173,0,0,0,0
1.596601009,1885,0,0,0
1.606606245,656,0,0,0
1.616762161,2703,0,0,0
1.626615286,434,0,0,0
1.636539698,994,0,0,0
1.646522999,209,0,0,0
1.656571865,990,0,0,0
1.666512966,2679,0,0,0
1.676601171,402,0,0,0
1.686603069,1713,0,0,0
1.696437597,0,0,0,0
1.706593752,1463,0,0,0
1.716602564,2626,0,0,0
1.726546526,0,0,0,0
1.736540794,554,0,0,0
1.74649477,0,0,0,0
1.756814003,1363,0,0,0
1.766845703,1423,0,0,0
1.775826931,190,0,0,0
1.785805702,1521,0,0,0
1.796548367,2530,0,0,0
1.806643486,725,0,0,0
1.816548109,0,0,0,0
1.826860905,704,0,0,0
1.83677578,215,0,0,0
1.84717989,2757,0,0,0
1.856777906,375,0,0,0
1.865711927,231,0,0,0
1.876623154,0,0,0,0
1.886600971,1261,0,0,0
1.896760702,935,0,0,0
1.906622171,0,0,0,0
1.916601419,1119,0,0,0
1.926623583,299,0,0,0
1.936984062,897,0,0,0
1.946624041,0,0,0,0
1.956806421,592,0,0,0
1.966622591,321,0,0,0
1.976551771,2466,0,0,0
1.986525059,1264,0,0,0
1.993845463,1439,0,0,0
2.006035089,0,0,0,0
2.016147137,1698,0,0,0
2.028470278,112,0,0,0
2.036355734,2172,0,0,0
2.046314001,130,0,0,0
2.061981201,85,0,0,0
2.066445827,416,0,0,0
2.075897217,272,0,0,0
2.086648464,26,0,0,0
2.094084501,275,0,0,0
2.101777792,848,0,0,0
2.116122961,528,0,0,0
2.125997782,1876,0,0,0
2.131854773,1360,0,0,0
2.145709753,192,0,0,0
2.154456854,1653,0,0,0
2.165601969,1361,0,0,0
2.176177025,1754,0,0,0
2.186052799,176,0,0,0
2.195801735,976,0,0,0
2.201451063,560,0,0,0
2.21678853,0,0,0,0
2.226235151,290,0,0,0
2.227257729,625,0,0,0
2.246448994,321,0,0,0
2.248360872,2263,0,0,0
2.262951374,1200,0,0,0
2.276627302,1994,0,0,0
2.285429001,210,0,0,0
2.296025515,1549,0,0,0
2.306833506,724,0,0,0
2.316515207,0,0,0,0
2.326656818,1359,0,0,0
2.336157799,2112,0,0,0
2.346060038,896,0,0,0
2.35740304,0,0,0,0
2.366354942,1873,0,0,0
2.375775814,107,0,0,0
2.386325598,1456,0,0,0
2.396029472,644,0,0,0
2.406170845,1971,0,0,0
2.416700602,115,0,0,0
2.426068306,1212,0,0,0
2.43678546,453,0,0,0
2.445485115,2314,0,0,0
2.455495358,1835,0,0,0
2.46066761,2313,0,0,0
2.475993633,1247,0,0,0
2.485635519,0,0,0,0
2.494664907,781,0,0,0
2.505747318,398,0,0,0
2.515975714,1920,0,0,0
2.525979042,226,0,0,0
2.536579609,683,0,0,0
2.546062231,530,0,0,0
2.556515217,0,0,0,0
2.564570904,1950,0,0,0
2.575681925,128,0,0,0
2.58565855,806,0,0,0
2.596735477,54,0,0,0
2.606635332,389,0,0,0
2.615548611,618,0,0,0
2.625937223,0,0,0,0
2.635997534,449,0,0,0
2.646439791,1194,0,0,0
2.654815197,16,0,0,0
2.661238909,0,0,0,0
2.675206423,0,0,0,0
2.686633587,0,0,0,0
2.69311595,0,0,0,0
2.705842018,0,0,0,0
2.715060472,1323,0,0,0
2.725407839,800,0,0,0
2.735476494,0,0,0,0
2.746421576,0,0,0,0
2.751813889,0,0,0,0
2.766277313,0,0,0,0
2.776365042,1291,0,0,0
2.783387423,0,0,0,0
2.79665184,0,0,0,0
2.806431055,0,0,0,0
2.815159082,176,0,0,0
2.826344967,34,0,0,0
2.836631775,334,0,0,0
2.844312906,626,0,0,0
2.850386381,0,0,0,0
2.860932112,1059,0,0,0
2.875302315,0,0,0,0
2.885969162,0,0,0,0
2.889156342,0,0,0,0
2.89952898,0,0,0,0
2.915718079,0,0,0,0
2.926320553,0,0,0,0
2.9357934,0,0,0,0
2.943801641,0,0,0,0
2.95416832,0,0,0,0
2.965846777,0,0,0,0
2.975720644,0,0,0,0
2.98217535,0,0,0,0
2.992825508,0,0,0,0
3.004061222,0,0,0,0
3.014813185,0,0,0,0
3.026331186,0,0,0,0
3.036332846,0,0,0,0
3.050948858,0,0,0,0
3.050948858,0,0,0,0
3.068786383,0,0,0,0
3.073398113,0,0,0,0
3.086380482,0,0,0,0
3.093105078,0,0,0,0
3.103513002,0,0,0,0
3.11111331,0,0,0,0
3.125916004,0,0,0,0
3.135741472,0,0,0,0
3.146287203,0,0,0,0
3.156259775,0,0,0,0
3.166376829,1161,0,0,0
3.175364494,0,0,0,0
3.181835413,0,0,0,0
3.192279339,0,0,0,0
3.206391573,795,0,0,0
3.20870471,0,0,0,0
3.224583864,0,0,0,0
3.236395121,0,0,0,0
3.246364117,99,0,0,0
3.249296904,1678,0,0,0
3.260139942,0,0,0,0
3.275851965,0,0,0,0
3.286533594,1717,0,0,0
3.295638084,0,0,0,0
3.305696011,0,0,0,0
3.314143419,0,0,0,0
3.32417798,0,0,0,0
3.328130484,0,0,0,0
3.346394539,121,0,0,0
3.356743574,0,0,0,0
3.359536409,0,0,0,0
3.37623167,0,0,0,0
3.38577342,0,0,0,0
3.395486116,0,0,0,0
3.405494213,400,0,0,0
3.411187887,0,0,0,0
3.425119877,0,0,0,0
3.429581881,0,0,0,0
3.446371078,0,0,0,0
3.456166506,0,0,0,0
3.465876102,800,0,0,0
3.473715782,0,0,0,0
3.481893539,0,0,0,0
3.495948553,0,0,0,0
3.497794867,0,0,0,0
3.514712095,0,0,0,0
3.524502993,0,0,0,0
3.528575659,0,0,0,0
3.545976162,0,0,0,0
3.548134089,0,0,0,0
3.564958572,801,0,0,0
3.575561047,0,0,0,0
3.577821255,0,0,0,0
3.596673012,0,0,0,0
3.60666132,0,0,0,0
3.613488197,0,0,0,0
3.625307798,828,0,0,0
3.627856493,0,0,0,0
3.645818472,0,0,0,0
3.6468153,0,0,0,0
3.66612339,0,0,0,0
3.674666166,0,0,0,0
3.681433678,813,0,0,0
3.695688963,0,0,0,0
3.703691483,0,0,0,0
3.71430254,0,0,0,0
3.725812674,0,0,0,0
3.729594231,0,0,0,0
3.745853186,0,0,0,0
3.747925043,0,0,0,0
3.764629364,0,0,0,0
3.77450943,0,0,0,0
3.778549433,944,0,0,0
3.796558619,0,0,0,0
3.806936026,0,0,0,0
3.81366539,0,0,0,0
3.824271917,0,0,0,0
3.830358744,0,0,0,0
3.846261024,1666,0,0,0
3.855966091,0,0,0,0
3.865543127,0,0,0,0
3.876405716,0,0,0,0
3.886447668,0,0,0,0
3.896458387,0,0,0,0
3.904725552,1658,0,0,0
3.916267395,0,0,0,0
3.925490141,0,0,0,0
3.935621977,0,0,0,0
3.946199656,0,0,0,0
3.951772451,0,0,0,0
3.964474201,2169,0,0,0
3.974869967,0,0,0,0
3.986142397,0,0,0,0
3.995538473,0,0,0,0
3.99653554,0,0,0,0
4.016491413,0,0,0,0
4.022970915,2928,0,0,0
4.0294981,0,0,0,0
4.04587698,0,0,0,0
4.056504488,0,0,0,0
4.062530756,0,0,0,0
4.07254529,0,0,0,0
4.085916519,2441,0,0,0
4.09604907,0,0,0,0
4.098042488,0,0,0,0
4.111303329,0,0,0,0
4.124995708,0,0,0,0
4.133002281,0,0,0,0
4.141032219,1840,0,0,0
4.15103507,0,0,0,0
4.166173458,0,0,0,0
4.17638278,0,0,0,0
4.18082428,0,0,0,0
4.19619441,0,0,0,0
4.205957174,0,0,0,0
4.215515852,0,0,0,0
4.225610018,0,0,0,0
4.235815287,0,0,0,0
4.245857477,1267,0,0,0
4.252412796,0,0,0,0
4.263671398,0,0,0,0
4.273694038,0,0,0,0
4.283696651,0,0,0,0
4.296299934,0,0,0,0
4.305157423,0,0,0,0
4.31637764,0,0,0,0
4.326060295,0,0,0,0
4.335950136,0,0,0,0
4.346448183,0,0,0,0
4.352042913,0,0,0,0
4.366163254,0,0,0,0
4.375307798,0,0,0,0
4.385336399,0,0,0,0
4.391996861,0,0,0,0
4.406114817,0,0,0,0
4.416394949,0,0,0,0
4.426463604,0,0,0,0
4.43655324,0,0,0,0
4.441928864,1725,0,0,0
4.451938391,0,0,0,0
4.45860076,0,0,0,0
4.476448774,0,0,0,0
4.486461878,0,0,0,0
4.491911173,0,0,0,0
4.506609201,0,0,0,0
4.516051769,0,0,0,0
4.525655031,0,0,0,0
4.533718824,131,0,0,0
4.544249773,1208,0,0,0
4.55226922,0,0,0,0
4.557512999,0,0,0,0
4.575666428,221,0,0,0
4.586556673,871,0,0,0
4.591917753,0,0,0,0
4.601934671,0,0,0,0
4.607732058,0,0,0,0
4.625379086,0,0,0,0
4.635699511,0,0,0,0
4.642038107,1088,0,0,0
4.652102709,0,0,0,0
4.658535957,0,0,0,0
4.67423296,0,0,0,0
4.686496258,0,0,0,0
4.69195652,0,0,0,0
4.701971292,2083,0,0,0
4.707544088,0,0,0,0
4.724250793,0,0,0,0
4.736680031,609,0,0,0
4.7464118,2543,0,0,0
4.755418301,0,0,0,0
4.757883072,0,0,0,0
4.776395321,0,0,0,0
4.786493063,0,0,0,0
4.790876865,0,0,0,0
4.801858902,378,0,0,0
4.807630301,0,0,0,0
4.825218439,0,0,0,0
4.835226774,934,0,0,0
4.840893269,0,0,0,0
4.851876736,0,0,0,0
4.858563662,0,0,0,0
4.874191284,1136,0,0,0
4.88517952,0,0,0,0
4.891838789,0,0,0,0
4.905753613,0,0,0,0
4.914238453,1387,0,0,0
4.926007032,0,0,0,0
4.931097031,0,0,0,0
4.945899963,0,0,0,0
4.95656085,1651,0,0,0
4.96032238,0,0,0,0
4.974246025,0,0,0,0
4.983287573,0,0,0,0
4.994712591,0,0,0,0
5.004725933,0,0,0,0
5.00861001,0,0,0,0
5.024173021,0,0,0,0
5.036554337,0,0,0,0
5.041849852,0,0,0,0
5.051865816,0,0,0,0
5.057591438,0,0,0,0
5.074159384,9,0,0,0
5.086219788,0,0,0,0
5.091825485,0,0,0,0
5.101868391,0,0,0,0
5.108464956,2816,0,0,0
5.125230074,0,0,0,0
5.129351616,0,0,0,0
5.146682501,0,0,0,0
5.157774687,1771,0,0,0
5.165677071,0,0,0,0
5.174484015,0,0,0,0
5.182549238,0,0,0,0
5.196467161,0,0,0,0
5.204473734,0,0,0,0
5.209146261,0,0,0,0
5.224946022,0,0,0,0
5.236352921,0,0,0,0
5.241857529,0,0,0,0
5.254515409,311,0,0,0
5.266462088,0,0,0,0
5.275704145,0,0,0,0
5.279893875,0,0,0,0
5.291571617,0,0,0,0
5.301582098,0,0,0,0
5.308457851,0,0,0,0
5.324103832,0,0,0,0
5.336504936,0,0,0,0
5.345980167,0,0,0,0
5.356029272,0,0,0,0
5.357648849,0,0,0,0
5.37582159,0,0,0,0
5.381200075,0,0,0,0
5.39602828,0,0,0,0
5.405026913,0,0,0,0
5.407819033,0,0,0,0
5.426426411,0,0,0,0
5.436429977,0,0,0,0
5.446461916,0,0,0,0
5.451772928,0,0,0,0
5.462745428,0,0,0,0
5.475291967,0,0,0,0
5.479782581,0,0,0,0
5.490896702,0,0,0,0
5.506720781,0,0,0,0
5.510695696,1200,0,0,0
5.52507782,0,0,0,0
5.535085917,0,0,0,0
5.541758299,0,0,0,0
5.551776409,0,0,0,0
5.5575037,0,0,0,0
5.575082541,0,0,0,0
5.585555077,0,0,0,0
5.595773697,0,0,0,0
5.598927259,0,0,0,0
5.613184929,112,0,0,0
5.626611233,0,0,0,0
5.634616613,0,0,0,0
5.643751383,0,0,0,0
5.653757095,0,0,0,0
5.660298109,0,0,0,0
5.676468611,0,0,0,0
5.678464413,0,0,0,0
5.691522837,0,0,0,0
5.697686434,0,0,0,0
5.709174395,0,0,0,0
5.725029469,0,0,0,0
5.736821175,0,0,0,0
5.741713762,0,0,0,0
5.752770662,0,0,0,0
5.760578632,0,0,0,0
5.775036335,0,0,0,0
5.785110474,0,0,0,0
5.794331074,0,0,0,0
5.8068223,0,0,0,0
5.810907841,0,0,0,0
5.824166298,0,0,0,0
5.833391428,0,0,0,0
5.840591908,0,0,0,0
5.851096392,0,0,0,0
5.863534451,0,0,0,0
5.874848843,0,0,0,0
5.879207134,0,0,0,0
5.891491175,0,0,0,0
5.902662992,0,0,0,0
5.908415556,0,0,0,0
5.925003529,0,0,0,0
5.935774565,0,0,0,0
5.946548939,0,0,0,0
5.95636034,0,0,0,0
5.966101408,0,0,0,0
5.976308346,0,0,0,0
5.977305889,1499,0,0,0
5.995828152,0,0,0,0
6.005839825,379,0,0,0
6.014896393,0,0,0,0
6.02642417,0,0,0,0
6.034113407,0,0,0,0
6.040984392,0,0,0,0
6.051489592,0,0,0,0
6.065935135,0,0,0,0
6.076003075,0,0,0,0
6.082221985,0,0,0,0
6.092242002,0,0,0,0
6.102241278,0,0,0,0
6.115805149,0,0,0,0
6.126034021,0,0,0,0
6.132751942,0,0,0,0
6.146030188,0,0,0,0
6.148025036,0,0,0,0
6.165757179,0,0,0,0
6.175810814,0,0,0,0
6.182242632,0,0,0,0
6.196032763,0,0,0,0
6.206477165,0,0,0,0
6.216005087,0,0,0,0
6.224807501,0,0,0,0
6.233823299,0,0,0,0
6.243837833,0,0,0,0
6.256210804,0,0,0,0
6.266525745,0,0,0,0
6.275586843,0,0,0,0
6.285627604,0,0,0,0
6.28662467,0,0,0,0
6.303385735,0,0,0,0
6.316111326,0,0,0,0
6.325220108,0,0,0,0
6.335262537,0,0,0,0
6.346353054,0,0,0,0
6.348346949,0,0,0,0
6.365892649,0,0,0,0
6.366891861,0,0,0,0
6.376909733,0,0,0,0
6.394081116,0,0,0,0
6.405254841,0,0,0,0
6.408337355,0,0,0,0
6.424976349,0,0,0,0
6.435567379,0,0,0,0
6.444653749,0,0,0,0
6.452707529,0,0,0,0
6.466676474,0,0,0,0
6.476603985,0,0,0,0
6.478672028,0,0,0,0
6.49141717,0,0,0,0
6.49806118,0,0,0,0
6.514788151,0,0,0,0
6.525044441,0,0,0,0
6.529468298,0,0,0,0
6.544705868,0,0,0,0
6.555584669,0,0,0,0
6.562760353,0,0,0,0
6.575001955,0,0,0,0
6.578858852,0,0,0,0
6.596612692,0,0,0,0
6.606654882,0,0,0,0
6.613710642,0,0,0,0
6.625801563,0,0,0,0
6.627904415,0,0,0,0
6.646467686,0,0,0,0
6.656362295,0,0,0,0
6.662775755,0,0,0,0
6.675111294,0,0,0,0
6.682355404,788,0,0,0
6.696532488,0,0,0,0
6.707016706,0,0,0,0
6.714818001,0,0,0,0
6.726616144,0,0,0,0
6.728975058,0,0,0,0
6.746623278,0,0,0,0
6.753798485,0,0,0,0
6.762678623,0,0,0,0
6.774666786,0,0,0,0
6.777717352,0,0,0,0
6.791654825,0,0,0,0
6.798023462,0,0,0,0
6.816804647,0,0,0,0
6.82488513,647,0,0,0
6.826756716,2575,0,0,0
6.846823215,0,0,0,0
6.857066631,0,0,0,0
6.862575054,0,0,0,0
6.876267433,0,0,0,0
6.879866362,0,0,0,0
6.896726847,0,0,0,0
6.905683517,0,0,0,0
6.911283493,1712,0,0,0
6.924944639,0,0,0,0
6.929332495,0,0,0,0
6.94132781,0,0,0,0
6.951353788,0,0,0,0
6.958229542,112,0,0,0
6.976492882,0,0,0,0
6.976492882,0,0,0,0
6.996083498,0,0,0,0
7.006469727,0,0,0,0
7.015805483,0,0,0,0
7.026442766,0,0,0,0
7.036635399,0,0,0,0
7.041451454,0,0,0,0
7.051464319,0,0,0,0
7.059182167,0,0,0,0
7.07412219,0,0,0,0
7.086158276,0,0,0,0
7.094001532,0,0,0,0
7.106286287,0,0,0,0
7.114500999,0,0,0,0
7.126398087,0,0,0,0
7.128393888,0,0,0,0
7.145828962,597,0,0,0
7.151734114,0,0,0,0
7.165738583,0,0,0,0
7.174984694,0,0,0,0
7.18612957,0,0,0,0
7.187128782,0,0,0,0
7.206497431,0,0,0,0
7.207925558,0,0,0,0
7.224750757,0,0,0,0
7.234789848,0,0,0,0
7.241441011,0,0,0,0
7.251496553,0,0,0,0
7.263350487,0,0,0,0
7.274827003,0,0,0,0
7.286428213,0,0,0,0
7.294172049,0,0,0,0
7.302176714,0,0,0,0
7.312410355,0,0,0,0
7.325805902,0,0,0,0
7.336816311,0,0,0,0
7.342195034,317,0,0,0
7.35431695,0,0,0,0
7.358237743,0,0,0,0
7.374724388,0,0,0,0
7.384763956,0,0,0,0
7.395611286,0,0,0,0
7.402959108,0,0,0,0
7.414879322,0,0,0,0
7.424761534,0,0,0,0
7.431453705,0,0,0,0
7.446233034,0,0,0,0
7.450474262,0,0,0,0
7.465952873,0,0,0,0
7.474666357,0,0,0,0
7.480854273,0,0,0,0
7.495127439,0,0,0,0
7.504791975,0,0,0,0
7.516456604,0,0,0,0
7.524747133,0,0,0,0
7.536323547,0,0,0,0
7.542182684,0,0,0,0
7.556287527,0,0,0,0
7.565847874,0,0,0,0
7.57465601,0,0,0,0
7.584693909,0,0,0,0
7.591704369,0,0,0,0
7.606450081,0,0,0,0
7.60734725,0,0,0,0
7.623801231,0,0,0,0
7.636075258,0,0,0,0
7.646214008,0,0,0,0
7.655817986,0,0,0,0
7.666851759,0,0,0,0
7.675730705,0,0,0,0
7.685728073,0,0,0,0
7.690068483,0,0,0,0
7.700103283,0,0,0,0
7.715667248,0,0,0,0
7.725530624,0,0,0,0
7.736014128,0,0,0,0
7.746081114,0,0,0,0
7.754398108,0,0,0,0
7.760162354,0,0,0,0
7.776534557,0,0,0,0
7.778708935,0,0,0,0
7.790236712,0,0,0,0
7.803364038,0,0,0,0
7.811045885,0,0,0,0
7.825127125,0,0,0,0
7.836236954,0,0,0,0
7.843133211,0,0,0,0
7.848793268,0,0,0,0
7.857789278,0,0,0,0
7.876350403,0,0,0,0
7.880784988,0,0,0,0
7.896221876,0,0,0,0
7.897221327,0,0,0,0
7.915878296,0,0,0,0
7.926616669,0,0,0,0
7.935688972,0,0,0,0
7.946301222,0,0,0,0
7.95605135,0,0,0,0
7.959044933,0,0,0,0
7.97450304,0,0,0,0
7.986230612,0,0,0,0
7.99145937,0,0,0,0
8.006946564,0,0,0,0
8.007974386,0,0,0,0
8.02463603,0,0,0,0
8.034644604,0,0,0,0
8.040311813,0,0,0,0
8.056922913,0,0,0,0
8.057919741,0,0,0,0
8.074640989,0,0,0,0
8.084652185,0,0,0,0
8.091336489,0,0,0,0
8.106927395,0,0,0,0
8.107923269,0,0,0,0
8.123602867,0,0,0,0
8.134617805,0,0,0,0
8.141324997,0,0,0,0
8.155801773,0,0,0,0
8.166454792,0,0,0,0
8.175388336,0,0,0,0
8.183460712,0,0,0,0
8.196859837,0,0,0,0
8.204874277,0,0,0,0
8.212764502,0,0,0,0
8.227054596,0,0,0,0
8.228071928,1045,0,0,0
8.243039608,0,0,0,0
8.256901979,0,0,0,0
8.26622963,2249,0,0,0
8.274369478,0,0,0,0
8.282861233,0,0,0,0
8.296337843,0,0,0,0
8.306888342,2030,0,0,0
8.316255569,1874,0,0,0
8.326377392,2192,0,0,0
8.334774733,0,0,0,0
8.345901966,2353,0,0,0
8.353974104,0,0,0,0
8.366362572,0,0,0,0
8.37615633,0,0,0,0
8.385141373,0,0,0,0
8.395919323,0,0,0,0
8.404526711,0,0,0,0
8.413820744,0,0,0,0
8.425602674,0,0,0,0
8.436273336,0,0,0,0
8.444031954,0,0,0,0
8.456581593,0,0,0,0
8.464936972,0,0,0,0
8.476346254,0,0,0,0
8.48018384,0,0,0,0
8.496421814,0,0,0,0
8.506202459,0,0,0,0
8.515726089,0,0,0,0
8.526320457,0,0,0,0
8.534842968,0,0,0,0
8.546539307,0,0,0,0
8.555894852,0,0,0,0
8.564950466,0,0,0,0
8.576375246,0,0,0,0
8.58648181,0,0,0,0
8.595904589,0,0,0,0
8.606792212,0,0,0,0
8.616577387,0,0,0,0
8.626453638,0,0,0,0
8.633331537,0,0,0,0
8.646181822,0,0,0,0
8.656493425,176,0,0,0
8.664056063,0,0,0,0
8.674406052,0,0,0,0
8.686005354,0,0,0,0
8.696512699,0,0,0,0
8.702289104,0,0,0,0
8.716646194,0,0,0,0
8.726313829,0,0,0,0
8.735158682,0,0,0,0
8.746757746,0,0,0,0
8.756925106,0,0,0,0
8.763663292,0,0,0,0
8.774572372,0,0,0,0
8.778985023,0,0,0,0
8.794959545,0,0,0,0
8.80441761,0,0,0,0
8.815639973,0,0,0,0
8.825424671,0,0,0,0
8.835597277,0,0,0,0
8.846396685,0,0,0,0
8.856600285,0,0,0,0
8.86592412,0,0,0,0
8.874120951,0,0,0,0
8.886162758,0,0,0,0
8.896559238,1251,0,0,0
8.906820297,0,0,0,0
8.915899038,1458,0,0,0
8.924546957,0,0,0,0
8.934339285,0,0,0,0
8.946743727,0,0,0,0
8.957075357,0,0,0,0
8.962841749,0,0,0,0
8.974285841,0,0,0,0
8.985744476,0,0,0,0
8.993353844,0,0,0,0
9.002043962,0,0,0,0
9.015870571,0,0,0,0
9.026593685,128,0,0,0
9.036307335,0,0,0,0
9.046432018,0,0,0,0
9.056079388,0,0,0,0
9.062506437,0,0,0,0
9.074564457,0,0,0,0
9.086223364,0,0,0,0
9.096277714,0,0,0,0
9.10449338,0,0,0,0
9.116284847,0,0,0,0
9.124101877,0,0,0,0
9.136070013,77,0,0,0
9.146522284,0,0,0,0
9.156646729,0,0,0,0
9.161915064,0,0,0,0
9.176532984,0,0,0,0
9.18585062,0,0,0,0
9.192436695,0,0,0,0
9.206629038,0,0,0,0
9.215912104,0,0,0,0
9.226073742,0,0,0,0
9.23183322,0,0,0,0
9.246127367,0,0,0,0
9.256557226,0,0,0,0
9.263573885,0,0,0,0
9.275711536,0,0,0,0
9.285944223,0,0,0,0
9.295973539,0,0,0,0
9.30629468,0,0,0,0
9.315947294,0,0,0,0
9.325935125,0,0,0,0
9.33643651,0,0,0,0
9.342093229,0,0,0,0
9.356498718,0,0,0,0
9.365948915,0,0,0,0
9.376299858,0,0,0,0
9.3864398,0,0,0,0
9.39133811,0,0,0,0
9.406691551,0,0,0,0
9.40767312,0,0,0,0
9.424356222,0,0,0,0
9.435676098,0,0,0,0
9.445651531,0,0,0,0
9.456681013,0,0,0,0
9.466637135,0,0,0,0
9.475275278,0,0,0,0
9.483786583,0,0,0,0
9.494699955,0,0,0,0
9.506575823,0,0,0,0
9.515758753,0,0,0,0
9.51676178,0,0,0,0
9.528959274,0,0,0,0
9.546519756,0,0,0,0
9.548671961,0,0,0,0
9.559472084,0,0,0,0
9.574331522,0,0,0,0
9.584341764,0,0,0,0
9.591728449,445,0,0,0
9.606632948,2417,0,0,0
9.61341238,0,0,0,0
9.624592781,0,0,0,0
9.628542662,0,0,0,0
9.643669844,0,0,0,0
9.656869173,0,0,0,0
9.661603212,0,0,0,0
9.676254988,0,0,0,0
9.681459665,0,0,0,0
9.695578575,0,0,0,0
9.697758675,0,0,0,0
9.712772369,0,0,0,0
9.723882675,0,0,0,0
9.72954011,0,0,0,0
9.746225834,0,0,0,0
9.756534576,0,0,0,0
9.762256861,0,0,0,0
9.776586771,0,0,0,0
9.786702156,0,0,0,0
9.793234348,0,0,0,0
9.806198359,0,0,0,0
9.815101624,0,0,0,0
9.82511878,0,0,0,0
9.835227966,0,0,0,0
9.845559835,0,0,0,0
9.849723577,0,0,0,0
9.866475105,0,0,0,0
9.876574755,0,0,0,0
9.882217169,0,0,0,0
9.895902634,0,0,0,0
9.906648159,0,0,0,0
9.91621089,0,0,0,0
9.926338911,0,0,0,0
9.928332806,0,0,0,0
9.941148043,0,0,0,0
9.94869709,0,0,0,0
9.964095592,0,0,0,0
9.974300623,0,0,0,0
9.977929592,0,0,0,0
9.990961552,957,0,0,0
10.0065949,0,0,0,0
10.00759482,0,0,0,0
10.02437043,0,0,0,0
10.03442836,0,0,0,0
10.04103875,0,0,0,0
10.05223203,0,0,0,0
10.06531,0,0,0,0
10.0760479,0,0,0,0
10.08560371,0,0,0,0
10.0961957,0,0,0,0
10.10658526,0,0,0,0
10.11107254,0,0,0,0
10.12591577,0,0,0,0
10.13395333,0,0,0,0
10.14613986,0,0,0,0
10.15658879,0,0,0,0
10.16593313,0,0,0,0
10.17615438,0,0,0,0
10.17864442,0,0,0,0
10.19100595,0,0,0,0
10.20667768,0,0,0,0
10.2127111,0,0,0,0
10.22401476,0,0,0,0
10.2323451,0,0,0,0
10.24614644,0,0,0,0
10.25623989,0,0,0,0
10.2664547,0,0,0,0
10.27433348,0,0,0,0
10.27838969,0,0,0,0
10.29453325,0,0,0,0
10.30654597,0,0,0,0
10.31299043,0,0,0,0
10.32406497,0,0,0,0
10.3313787,2777,0,0,0
10.34303427,0,0,0,0
10.35383201,2589,0,0,0
10.36686397,0,0,0,0
10.37425089,0,0,0,0
10.37875986,0,0,0,0
10.3955605,0,0,0,0
10.4060843,0,0,0,0
10.41125703,0,0,0,0
10.42607713,0,0,0,0
10.42707348,0,0,0,0
10.44369769,0,0,0,0
10.45385575,0,0,0,0
10.4582634,0,0,0,0
10.47652149,0,0,0,0
10.48276949,0,0,0,0
10.49285746,0,0,0,0
10.5073204,0,0,0,0
10.51627469,0,0,0,0
10.52583361,0,0,0,0
10.53603792,1275,0,0,0
10.54217505,2350,0,0,0
10.5511694,0,0,0,0
10.56024098,0,0,0,0
10.57564688,0,0,0,0
10.58564949,0,0,0,0
10.59300542,0,0,0,0
10.60645151,0,0,0,0
10.60795093,0,0,0,0
10.62638044,0,0,0,0
10.63665199,0,0,0,0
10.64097857,171,0,0,0
10.65653682,0,0,0,0
10.6581192,0,0,0,0
10.67634988,0,0,0,0
10.68048072,0,0,0,0
10.69383073,0,0,0,0
10.70643306,0,0,0,0
10.71339869,0,0,0,0
10.72662187,0,0,0,0
10.73662901,0,0,0,0
10.74614596,0,0,0,0
10.756495,0,0,0,0
10.7592442,0,0,0,0
10.77644134,0,0,0,0
10.78674626,0,0,0,0
10.7921648,0,0,0,0
10.80646181,2205,0,0,0
10.80978203,0,0,0,0
10.82425046,0,0,0,0
10.83453202,0,0,0,0
10.8456676,0,0,0,0
10.8486588,0,0,0,0
10.86147356,0,0,0,0
10.87387204,0,0,0,0
10.88057089,0,0,0,0
10.89409876,0,0,0,0
10.90639663,0,0,0,0
10.90739155,0,0,0,0
10.92406011,0,0,0,0
10.93444538,0,0,0,0
10.94164872,0,0,0,0
10.95650864,0,0,0,0
10.96248555,976,0,0,0
10.97620916,0,0,0,0
10.97720623,0,0,0,0
10.99653935,0,0,0,0
11.00636935,0,0,0,0
11.0073514,0,0,0,0
11.02403903,0,0,0,0
11.03684902,0,0,0,0
11.04423451,1190,0,0,0
11.05644774,0,0,0,0
11.05744672,0,0,0,0
11.07634616,0,0,0,0
11.08301663,0,0,0,0
11.09663224,0,0,0,0
11.1064558,0,0,0,0
11.10745502,0,0,0,0
11.12401485,0,0,0,0
11.13402271,0,0,0,0
11.14626265,0,0,0,0
11.15650821,0,0,0,0
11.16701365,0,0,0,0
11.17506838,0,0,0,0
11.18428254,0,0,0,0
11.19060087,93,0,0,0
11.20648623,0,0,0,0
11.20751214,0,0,0,0
11.22401023,0,0,0,0
11.23403668,0,0,0,0
11.23966742,0,0,0,0
11.25633526,0,0,0,0
11.25731921,0,0,0,0
11.27588987,0,0,0,0
11.28602886,0,0,0,0
11.28702593,33,0,0,0
11.29703927,0,0,0,0
11.30815554,0,0,0,0
11.31819534,0,0,0,0
11.32822561,0,0,0,0
11.34119534,0,0,0,0
11.3512094,0,0,0,0
11.36600161,0,0,0,0
11.37511468,0,0,0,0
11.38430142,0,0,0,0
11.38975191,0,0,0,0
11.39880586,0,0,0,0
11.4073112,0,0,0,0
11.41731477,0,0,0,0
11.42734456,0,0,0,0
11.44164848,0,0,0,0
11.4562397,0,0,0,0
11.45723653,0,0,0,0
11.47674751,1203,0,0,0
11.48595643,0,0,0,0
11.49684525,0,0,0,0
11.49684525,0,0,0,0
11.50685859,0,0,0,0
11.51791787,0,0,0,0
11.52795792,0,0,0,0
11.53795767,0,0,0,0
11.54795814,0,0,0,0
11.55810833,0,0,0,0
11.57547045,0,0,0,0
11.57930875,0,0,0,0
11.5965023,0,0,0,0
11.60627055,0,0,0,0
11.61213589,0,0,0,0
11.62608314,0,0,0,0
11.63671231,0,0,0,0
11.64363527,0,0,0,0
11.65625024,0,0,0,0
11.65851545,0,0,0,0
11.67401218,0,0,0,0
11.68490863,0,0,0,0
11.6934967,2661,0,0,0
11.70625067,0,0,0,0
11.70857787,0,0,0,0
11.72586155,0,0,0,0
11.73600721,0,0,0,0
11.74249601,0,0,0,0
11.75622725,0,0,0,0
11.75849938,0,0,0,0
11.77580237,0,0,0,0
11.78617382,0,0,0,0
11.79218459,0,0,0,0
11.80615973,0,0,0,0
11.81294942,0,0,0,0
11.82588863,0,0,0,0
11.83389759,0,0,0,0
11.84671831,0,0,0,0
11.85629702,0,0,0,0
11.86072922,0,0,0,0
11.87287664,0,0,0,0
11.8838532,0,0,0,0
11.8951149,0,0,0,0
11.90615702,0,0,0,0
11.90715504,0,0,0,0
11.91719079,0,0,0,0
11.93220711,0,0,0,0
11.94649148,0,0,0,0
11.95614219,0,0,0,0
11.95713854,0,0,0,0
11.97652435,0,0,0,0
11.97652435,0,0,0,0
11.99664712,0,0,0,0
12.00685024,0,0,0,0
12.01581931,0,0,0,0
12.02596998,0,0,0,0
12.0349884,1269,0,0,0
12.0393765,0,0,0,0
12.04937744,0,0,0,0
12.0664432,0,0,0,0
12.07645631,0,0,0,0
12.08645749,0,0,0,0
12.09211802,0,0,0,0
12.10591912,0,0,0,0
12.11376953,0,0,0,0
12.12380934,0,0,0,0
12.13503146,0,0,0,0
12.13503146,0,0,0,0
12.15602255,0,0,0,0
12.15702105,0,0,0,0
12.16806149,2543,0,0,0
12.17807341,0,0,0,0
12.1880734,0,0,0,0
12.20616198,0,0,0,0
12.21306944,0,0,0,0
12.22462726,0,0,0,0
12.2336328,0,0,0,0
12.23963666,0,0,0,0
12.2476306,0,0,0,0
12.26382995,0,0,0,0
12.27482176,0,0,0,0
12.28599072,0,0,0,0
12.29202819,0,0,0,0
12.3020401,0,0,0,0
12.31539917,0,0,0,0
12.32540536,0,0,0,0
12.3354044,0,0,0,0
12.34540319,0,0,0,0
12.35593057,0,0,0,0
12.35692739,0,0,0,0
12.36693311,0,0,0,0
12.38653374,0,0,0,0
12.3952601,0,0,0,0
12.40600204,0,0,0,0
12.40699935,0,0,0,0
12.42495275,0,0,0,0
12.42775965,0,0,0,0
12.44164276,0,0,0,0
12.45478368,0,0,0,0
12.4582665,0,0,0,0
12.47544527,0,0,0,0
12.47859073,0,0,0,0
12.49438882,0,0,0,0
12.50440478,0,0,0,0
12.50903773,0,0,0,0
12.52475476,0,0,0,0
12.52575207,0,0,0,0
12.54241705,0,0,0,0
12.55242658,0,0,0,0
12.55927205,0,0,0,0
12.57556629,0,0,0,0
12.57556629,0,0,0,0
12.59068751,0,0,0,0
12.6056807,0,0,0,0
12.61399841,0,0,0,0
12.62475371,0,0,0,0
12.62575126,0,0,0,0
12.64276433,0,0,0,0
12.65104914,0,0,0,0
12.658355,0,0,0,0
12.67377996,0,0,0,0
12.68179679,0,0,0,0
12.69554639,0,0,0,0
12.70583296,141,0,0,0
12.70683074,0,0,0,0
12.71683669,0,0,0,0
12.72683573,0,0,0,0
12.73683643,0,0,0,0
12.74683619,0,0,0,0
12.75683713,0,0,0,0
12.76683545,0,0,0,0
12.7768364,0,0,0,0
12.78683662,0,0,0,0
12.79683661,0,0,0,0
12.80766606,0,0,0,0
12.82551312,0,0,0,0
12.82551312,0,0,0,0
12.83551884,0,0,0,0
12.84551859,0,0,0,0
12.86537004,0,0,0,0
12.87492514,0,0,0,0
12.88293481,0,0,0,0
12.88949895,0,0,0,0
12.90590954,647,0,0,0
12.90590954,0,0,0,0
12.91593456,0,0,0,0
12.92593503,0,0,0,0
12.93699026,0,0,0,0
12.94829297,0,0,0,0
12.9583087,0,0,0,0
12.96830797,0,0,0,0
12.97830963,0,0,0,0
12.99082923,0,0,0,0
13.00086284,0,0,0,0
13.0108366,0,0,0,0
13.0246377,0,0,0,0
13.02858329,0,0,0,0
13.03859782,0,0,0,0
13.05546498,0,0,0,0
13.06547189,0,0,0,0
13.07548404,0,0,0,0
13.08249426,0,0,0,0
13.09160829,0,0,0,0
13.10080624,0,0,0,0
13.11482453,0,0,0,0
13.12454724,0,0,0,0
13.13456845,0,0,0,0
13.13666987,0,0,0,0
13.14764881,0,0,0,0
13.15764928,0,0,0,0
13.17543411,0,0,0,0
13.18494987,0,0,0,0
13.19421792,0,0,0,0
13.20535564,0,0,0,0
13.21542597,0,0,0,0
13.22541571,0,0,0,0
13.23514533,0,0,0,0
13.24472976,0,0,0,0
13.25479102,0,0,0,0
13.26547098,0,0,0,0
13.27502179,0,0,0,0
13.28473353,0,0,0,0
13.29514408,0,0,0,0
13.30530477,0,0,0,0
13.31545234,0,0,0,0
13.32494044,0,0,0,0
13.33539701,0,0,0,0
13.3451457,0,0,0,0
13.35307097,0,0,0,0
13.3568697,0,0,0,0
13.37271285,0,0,0,0
13.3838284,0,0,0,0
13.39384365,0,0,0,0
13.40384459,0,0,0,0
13.41384411,0,0,0,0
13.42505217,0,0,0,0
13.43507433,0,0,0,0
13.44506931,0,0,0,0
13.45506954,0,0,0,0
13.46549726,656,0,0,0
13.47648454,4095,0,0,0
13.4774797,0,0,0,0
13.48749518,0,0,0,0
13.50324345,0,0,0,0
13.51100898,0,0,0,0
13.52484751,0,0,0,0
13.53285551,0,0,0,0
13.54015422,0,0,0,0
13.54817009,0,0,0,0
13.56465244,0,0,0,0
13.57469726,0,0,0,0
13.57569528,0,0,0,0
13.58684802,0,0,0,0
13.59685612,0,0,0,0
13.60789895,0,0,0,0
13.61791682,0,0,0,0
13.62917256,0,0,0,0
13.63918734,0,0,0,0
13.64918709,0,0,0,0
13.65919113,0,0,0,0
13.66919041,0,0,0,0
13.67918968,0,0,0,0
13.69027543,0,0,0,0
13.70029378,0,0,0,0
13.71029568,0,0,0,0
13.72537279,0,0,0,0
13.73361683,0,0,0,0
13.74142671,0,0,0,0
13.75561738,0,0,0,0
13.76462579,0,0,0,0
13.77464104,0,0,0,0
13.78465557,0,0,0,0
13.79465556,0,0,0,0
13.80465651,0,0,0,0
13.81473827,0,0,0,0
13.82559538,1520,0,0,0
13.82659316,0,0,0,0
13.83659959,0,0,0,0
13.84660029,0,0,0,0
13.85660076,0,0,0,0
13.87531519,0,0,0,0
13.88461137,0,0,0,0
13.89544535,0,0,0,0
13.90440917,0,0,0,0
13.91543484,0,0,0,0
13.92485309,0,0,0,0
13.93543649,0,0,0,0
13.94542074,0,0,0,0
13.95174456,0,0,0,0
13.96509171,0,0,0,0
13.97493029,0,0,0,0
13.98397541,0,0,0,0
13.99190307,0,0,0,0
14.00463152,0,0,0,0
14.01454735,0,0,0,0
14.02457023,0,0,0,0
14.03508782,0,0,0,0
14.0454309,0,0,0,0
14.05429363,0,0,0,0
14.06470227,0,0,0,0
14.07552958,291,0,0,0
14.0852201,0,0,0,0
14.09374332,0,0,0,0
14.10343504,0,0,0,0
14.11266804,0,0,0,0
14.12267828,0,0,0,0
14.13267827,0,0,0,0
14.14523268,0,0,0,0
14.15633178,0,0,0,0
14.16178489,0,0,0,0
14.17482781,0,0,0,0
14.18546772,0,0,0,0
14.19339967,89,0,0,0
14.20548797,0,0,0,0
14.21552706,0,0,0,0
14.21752167,0,0,0,0
14.23442793,0,0,0,0
14.24459648,0,0,0,0
14.25438046,0,0,0,0
14.26500487,0,0,0,0
14.273669,0,0,0,0
14.28465676,0,0,0,0
14.29678178,1514,0,0,0
14.3056798,0,0,0,0
14.30802774,0,0,0,0
14.31813931,0,0,0,0
14.33543611,0,0,0,0
14.34544492,0,0,0,0
14.35655689,0,0,0,0
14.36523199,0,0,0,0
14.37425423,0,0,0,0
14.37903142,0,0,0,0
14.38991213,0,0,0,0
14.40586138,0,0,0,0
14.40686035,0,0,0,0
14.41687846,0,0,0,0
14.42687845,0,0,0,0
14.43920469,0,0,0,0
14.45555019,0,0,0,0
14.45656824,0,0,0,0
14.4665823,16,0,0,0
14.4765892,0,0,0,0
14.49100709,0,0,0,0
14.50555754,0,0,0,0
14.50655532,0,0,0,0
14.51657844,0,0,0,0
14.52657032,0,0,0,0
14.54200935,0,0,0,0
14.55553961,0,0,0,0
14.5565362,0,0,0,0
14.57457995,0,0,0,0
14.58195138,0,0,0,0
14.59293675,0,0,0,0
14.60096526,0,0,0,0
14.61508226,0,0,0,0
14.62413573,0,0,0,0
14.63413811,0,0,0,0
14.64099598,0,0,0,0
14.65564942,0,0,0,0
14.65665555,0,0,0,0
14.66786647,0,0,0,0
14.68040705,0,0,0,0
14.69585752,1559,0,0,0
14.70565248,0,0,0,0
14.70666218,0,0,0,0
14.72527647,0,0,0,0
14.73562956,0,0,0,0
14.74141645,0,0,0,0
14.75564814,0,0,0,0
14.75564814,0,0,0,0
14.7665925,0,0,0,0
14.77659178,0,0,0,0
14.79549265,0,0,0,0
14.80035567,0,0,0,0
14.81638265,2786,0,0,0
14.82544589,0,0,0,0
14.83338833,0,0,0,0
14.83991647,0,0,0,0
14.85561109,0,0,0,0
14.85561109,0,0,0,0
14.86760426,0,0,0,0
14.87764621,0,0,0,0
14.89007187,0,0,0,0
14.90561414,0,0,0,0
14.9150095,0,0,0,0
14.91704679,0,0,0,0
14.92836022,0,0,0,0
14.94484282,0,0,0,0
14.95563936,0,0,0,0
14.96553302,0,0,0,0
14.9768374,335,0,0,0
14.9768374,0,0,0,0
14.98689103,0,0,0,0
15.00626159,0,0,0,0
15.00864506,0,0,0,0
15.02329373,0,0,0,0
15.02770233,0,0,0,0
15.04090714,0,0,0,0
15.05555081,0,0,0,0
15.06454897,0,0,0,0
15.07563806,0,0,0,0
15.08565021,0,0,0,0
15.09565115,0,0,0,0
15.10561705,0,0,0,0
15.10663247,0,0,0,0
15.1181891,0,0,0,0
15.13094258,1198,0,0,0
15.14204955,0,0,0,0
15.15559101,0,0,0,0
15.16542006,0,0,0,0
15.17551088,0,0,0,0
15.17650867,0,0,0,0
15.18655658,0,0,0,0
15.19654942,0,0,0,0
15.20759535,0,0,0,0
15.22304082,0,0,0,0
15.23324966,0,0,0,0
15.24396372,0,0,0,0
15.25612664,0,0,0,0
15.26563191,0,0,0,0
15.27370501,0,0,0,0
15.28369141,0,0,0,0
15.28995705,0,0,0,0
15.3054738,0,0,0,0
15.30646944,0,0,0,0
15.31661558,0,0,0,0
15.32661629,0,0,0,0
15.33661556,0,0,0,0
15.35443878,0,0,0,0
15.36525059,0,0,0,0
15.37650657,805,0,0,0
15.37749052,0,0,0,0
15.38983488,0,0,0,0
15.40559077,0,0,0,0
15.40658951,0,0,0,0
15.42222619,0,0,0,0
15.43553972,0,0,0,0
15.44514394,0,0,0,0
15.44614124,0,0,0,0
15.46096182,0,0,0,0
15.47418547,0,0,0,0
15.48518085,0,0,0,0
15.4945631,0,0,0,0
15.4970057,0,0,0,0
15.51039171,0,0,0,0
15.52319145,0,0,0,0
15.53320885,0,0,0,0
15.54559922,0,0,0,0
15.55549908,0,0,0,0
15.56459904,0,0,0,0
15.56759071,0,0,0,0
15.57759738,0,0,0,0
15.59563327,0,0,0,0
15.59563327,0,0,0,0
15.61677432,505,0,0,0
15.61777163,0,0,0,0
15.62777829,0,0,0,0
15.63777828,0,0,0,0
15.65535975,0,0,0,0
15.66071534,0,0,0,0
15.67397094,0,0,0,0
15.68561077,0,0,0,0
15.68902469,0,0,0,0
15.70528054,0,0,0,0
15.7139523,0,0,0,0
15.72223186,0,0,0,0
15.73224878,0,0,0,0
15.74224424,0,0,0,0
15.75224924,0,0,0,0
15.76224303,0,0,0,0
15.76944232,0,0,0,0
15.77948546,0,0,0,0
15.79519367,0,0,0,0
15.80224657,0,0,0,0
15.81562614,0,0,0,0
15.81769204,103,0,0,0
15.82978153,0,0,0,0
15.8427217,143,0,0,0
15.85536408,0,0,0,0
15.8563602,0,0,0,0
15.87207031,0,0,0,0
15.88141322,0,0,0,0
15.89112425,0,0,0,0
15.89914441,0,0,0,0
15.91522646,0,0,0,0
15.92559099,0,0,0,0
15.93559861,0,0,0,0
15.94559669,0,0,0,0
15.94559669,0,0,0,0
15.96559834,0,0,0,0
15.9755969,0,0,0,0
15.98562789,0,0,0,0
15.99560261,0,0,0,0
15.99560261,0,0,0,0
16.01559711,0,0,0,0
16.017241,0,0,0,0
16.02729082,0,0,0,0
16.0372901,0,0,0,0
16.04729104,0,0,0,0
16.06447601,0,0,0,0
16.07536936,0,0,0,0
16.08536673,0,0,0,0
16.09535933,0,0,0,0
16.10541201,0,0,0,0
16.11527514,0,0,0,0
16.12450409,0,0,0,0
16.1325202,0,0,0,0
16.14530826,0,0,0,0
16.14630723,0,0,0,0
16.16459775,0,0,0,0
16.17281032,0,0,0,0
16.18464231,0,0,0,0
16.19537544,0,0,0,0
16.20547867,0,0,0,0
16.21510434,0,0,0,0
16.22554016,0,0,0,0
16.23556423,0,0,0,0
16.24237943,0,0,0,0
16.25551105,0,0,0,0
16.25977516,0,0,0,0
16.27289605,0,0,0,0
16.28291225,0,0,0,0
16.29550362,0,0,0,0
16.30568242,0,0,0,0
16.30781698,0,0,0,0
16.32555866,0,0,0,0
16.33356214,0,0,0,0
16.34561276,0,0,0,0
16.35514927,0,0,0,0
16.36349416,0,0,0,0
16.37308073,0,0,0,0
16.38156605,0,0,0,0
16.39503002,0,0,0,0
16.40506172,0,0,0,0
16.41076398,0,0,0,0
16.42535043,0,0,0,0
16.42786169,0,0,0,0
16.44449878,0,0,0,0
16.45481992,0,0,0,0
16.46003246,0,0,0,0
16.47529101,0,0,0,0
16.47732377,0,0,0,0
16.49280524,0,0,0,0
16.50435233,0,0,0,0
16.50814366,0,0,0,0
16.52539635,0,0,0,0
16.53540611,0,0,0,0
16.54274106,0,0,0,0
16.55561733,0,0,0,0
16.56004262,0,0,0,0
16.57282376,0,0,0,0
16.57755709,0,0,0,0
16.59174466,0,0,0,0
16.6055007,0,0,0,0
16.60825729,0,0,0,0
16.62529373,0,0,0,0
16.6262908,0,0,0,0
16.64403868,0,0,0,0
16.65537119,0,0,0,0
16.66549683,0,0,0,0
16.67310047,0,0,0,0
16.68126106,0,0,0,0
16.69356418,0,0,0,0
16.70540071,0,0,0,0
16.70782089,0,0,0,0
16.72517419,0,0,0,0
16.73529267,0,0,0,0
16.73895812,0,0,0,0
16.75532031,0,0,0,0
16.75972724,0,0,0,0
16.77404213,0,0,0,0
16.77884436,0,0,0,0
16.79132175,0,0,0,0
16.80545545,0,0,0,0
16.80645108,0,0,0,0
16.82445621,0,0,0,0
16.83450127,0,0,0,0
16.83971977,0,0,0,0
16.85532308,0,0,0,0
16.85813069,0,0,0,0
16.87296486,0,0,0,0
16.88298345,0,0,0,0
16.89144516,0,0,0,0
16.90532279,0,0,0,0
16.90632153,0,0,0,0
16.92292047,0,0,0,0
16.93435454,0,0,0,0
16.94308376,0,0,0,0
16.95547509,0,0,0,0
16.9585824,0,0,0,0
16.97513032,0,0,0,0
16.98498011,0,0,0,0
16.99392414,0,0,0,0
17.00530005,0,0,0,0
17.00984144,0,0,0,0
17.02556634,0,0,0,0
17.02737451,0,0,0,0
17.04515624,0,0,0,0
17.05519032,0,0,0,0
17.05985498,0,0,0,0
17.07297564,0,0,0,0
17.07669854,0,0,0,0
17.09522581,0,0,0,0
17.10528517,0,0,0,0
17.11129951,0,0,0,0
17.12550783,0,0,0,0
17.12818384,0,0,0,0
17.14556289,0,0,0,0
17.15556622,0,0,0,0
17.16158199,0,0,0,0
17.17468786,0,0,0,0
17.18373489,0,0,0,0
17.19351935,0,0,0,0
17.20355058,0,0,0,0
17.20972538,0,0,0,0
17.22556782,0,0,0,0
17.226578,0,0,0,0
17.2422955,0,0,0,0
17.25328898,0,0,0,0
17.26414013,0,0,0,0
17.27388692,0,0,0,0
17.28190446,0,0,0,0
17.28953648,0,0,0,0
17.30522704,0,0,0,0
17.3062079,0,0,0,0
17.32560849,0,0,0,0
17.3356142,0,0,0,0
17.34573984,0,0,0,0
17.35529876,0,0,0,0
17.36478448,0,0,0,0
17.37549758,0,0,0,0
17.38505173,0,0,0,0
17.39471626,0,0,0,0
17.40247726,0,0,0,0
17.41055822,0,0,0,0
17.42483282,0,0,0,0
17.43512821,0,0,0,0
17.44324112,0,0,0,0
17.45524025,0,0,0,0
17.45859599,0,0,0,0
17.47522759,0,0,0,0
17.48490405,0,0,0,0
17.49451995,0,0,0,0
17.50525761,0,0,0,0
17.51438975,0,0,0,0
17.52512217,0,0,0,0
17.53502679,0,0,0,0
17.54430819,0,0,0,0
17.55573416,0,0,0,0
17.5643599,0,0,0,0
17.57500315,33,0,0,0
17.58535147,0,0,0,0
17.59545088,0,0,0,0
17.60498047,0,0,0,0
17.61135459,0,0,0,0
17.62405729,0,0,0,0
17.63561344,0,0,0,0
17.63982892,0,0,0,0
17.6549325,0,0,0,0
17.65593266,0,0,0,0
17.67259073,0,0,0,0
17.67808437,0,0,0,0
17.68926358,0,0,0,0
17.70522022,0,0,0,0
17.70851111,0,0,0,0
17.7228055,0,0,0,0
17.73281598,0,0,0,0
17.7408607,0,0,0,0
17.75487518,0,0,0,0
17.76481295,0,0,0,0
17.773489,0,0,0,0
17.78546858,0,0,0,0
17.79561639,0,0,0,0
17.80500627,0,0,0,0
17.81501245,0,0,0,0
17.82379293,0,0,0,0
17.83380032,0,0,0,0
17.84038806,0,0,0,0
17.85525298,0,0,0,0
17.864326,0,0,0,0
17.87374067,0,0,0,0
17.8850317,0,0,0,0
17.89280319,0,0,0,0
17.90500689,0,0,0,0
17.91477036,258,0,0,0
17.92561579,0,0,0,0
17.93203783,0,0,0,0
17.94532752,0,0,0,0
17.95536947,0,0,0,0
17.9636538,0,0,0,0
17.97525549,0,0,0,0
17.98465466,0,0,0,0
17.99352837,0,0,0,0
18.00529861,0,0,0,0
18.0153923,0,0,0,0
18.02258348,0,0,0,0
18.03064752,0,0,0,0
18.04486513,0,0,0,0
18.05479932,0,0,0,0
18.06125355,0,0,0,0
18.07579279,2640,0,0,0
18.08415556,0,0,0,0
18.09307599,0,0,0,0
18.10056782,0,0,0,0
18.11479115,839,0,0,0
18.12561369,0,0,0,0
18.13024187,0,0,0,0
18.14588833,0,0,0,0
18.15485048,0,0,0,0
18.16085577,0,0,0,0
18.17519188,0,0,0,0
18.1838181,0,0,0,0
18.19525242,0,0,0,0
18.20491385,0,0,0,0
18.21453261,0,0,0,0
18.22307253,0,0,0,0
18.23080635,1239,0,0,0
18.24522638,0,0,0,0
18.25277162,0,0,0,0
18.26132751,0,0,0,0
18.27476931,0,0,0,0
18.28350949,0,0,0,0
18.29220581,2768,0,0,0
18.30547023,0,0,0,0
18.31421113,0,0,0,0
18.32192326,0,0,0,0
18.33036613,0,0,0,0
18.34558249,0,0,0,0
18.35236335,0,0,0,0
18.35998535,0,0,0,0
18.37522197,0,0,0,0
18.38525629,86,0,0,0
18.3955543,0,0,0,0
18.40514183,0,0,0,0
18.41555643,0,0,0,0
18.42561817,458,0,0,0
18.42993069,0,0,0,0
18.44578171,0,0,0,0
18.45205617,0,0,0,0
18.46046281,0,0,0,0
18.47494173,0,0,0,0
18.48260188,0,0,0,0
18.4912107,1635,0,0,0
18.50546074,0,0,0,0
18.51552296,0,0,0,0
18.52185702,0,0,0,0
18.53518963,0,0,0,0
18.54478335,0,0,0,0
18.55254221,0,0,0,0
18.56615734,1460,0,0,0
18.57495117,0,0,0,0
18.5821166,0,0,0,0
18.58983779,0,0,0,0
18.60511231,0,0,0,0
18.61420441,0,0,0,0
18.62390471,0,0,0,0
18.63568997,0,0,0,0
18.64572573,0,0,0,0
18.6511693,0,0,0,0
18.66556668,46,0,0,0
18.67404461,0,0,0,0
18.68285203,0,0,0,0
18.69036102,1946,0,0,0
18.70468998,0,0,0,0
18.71249843,0,0,0,0
18.72235346,0,0,0,0
18.73540473,0,0,0,0
18.74477673,0,0,0,0
18.74577641,0,0,0,0
18.76487732,0,0,0,0
18.77465606,0,0,0,0
18.78345203,0,0,0,0
18.79570293,32,0,0,0
18.80545139,0,0,0,0
18.81438422,0,0,0,0
18.82488966,0,0,0,0
18.83481836,0,0,0,0
18.8435328,0,0,0,0
18.85161829,0,0,0,0
18.86551213,0,0,0,0
18.87415051,0,0,0,0
18.8818078,0,0,0,0
18.89512467,0,0,0,0
18.90475488,0,0,0,0
18.91145325,0,0,0,0
18.92609572,2830,0,0,0
18.93550467,0,0,0,0
18.94217515,0,0,0,0
18.94968033,0,0,0,0
18.96493363,0,0,0,0
18.97368145,0,0,0,0
18.98133826,0,0,0,0
18.99585795,0,0,0,0
19.00539446,0,0,0,0
19.01106596,0,0,0,0
19.02531433,431,0,0,0
19.0340066,0,0,0,0
19.04554343,0,0,0,0
19.05572343,2208,0,0,0
19.0656538,0,0,0,0
19.07295275,0,0,0,0
19.0809536,0,0,0,0
19.08902216,0,0,0,0
19.10463595,0,0,0,0
19.1156404,0,0,0,0
19.12497377,0,0,0,0
19.12717986,0,0,0,0
19.14549994,0,0,0,0
19.15552497,0,0,0,0
19.16552567,0,0,0,0
19.17307281,0,0,0,0
19.18320489,0,0,0,0
19.19320464,0,0,0,0
19.20546603,0,0,0,0
19.20546603,0,0,0,0
19.22536683,1280,0,0,0
19.23552608,0,0,0,0
19.24534154,160,0,0,0
19.25497437,0,0,0,0
19.26547003,303,0,0,0
19.2723186,0,0,0,0
19.28036714,2851,0,0,0
19.2944293,0,0,0,0
19.30447078,0,0,0,0
19.30958724,0,0,0,0
19.31643391,720,0,0,0
19.32728291,0,0,0,0
19.33954811,0,0,0,0
19.35468531,0,0,0,0
19.36558986,2028,0,0,0
19.3729403,0,0,0,0
19.38547516,2243,0,0,0
19.39398837,0,0,0,0
19.40262556,797,0,0,0
19.41122341,2039,0,0,0
19.42581153,415,0,0,0
19.43324089,0,0,0,0
19.44501424,0,0,0,0
19.45461321,14,0,0,0
19.46286464,2137,0,0,0
19.47230649,190,0,0,0
19.48483396,0,0,0,0
19.49353433,0,0,0,0
19.5043726,0,0,0,0
19.51437116,0,0,0,0
19.52411819,217,0,0,0
19.53413129,0,0,0,0
19.5441339,0,0,0,0
19.55532837,0,0,0,0
19.56564951,1334,0,0,0
19.57316589,0,0,0,0
19.58496141,0,0,0,0
19.59258819,0,0,0,0
19.60260057,0,0,0,0
19.60772347,0,0,0,0
19.61898732,0,0,0,0
19.62902999,0,0,0,0
19.63967466,0,0,0,0
19.65501904,0,0,0,0
19.66280103,0,0,0,0
19.67578602,0,0,0,0
19.68573546,0,0,0,0
19.68819332,0,0,0,0
19.70419526,0,0,0,0
19.70735049,78,0,0,0
19.72195125,0,0,0,0
19.73224568,240,0,0,0
19.74539375,0,0,0,0
19.7553978,0,0,0,0
19.75639558,0,0,0,0
19.77568889,0,0,0,0
19.77868176,0,0,0,0
19.79326868,0,0,0,0
19.80335069,0,0,0,0
19.8069737,0,0,0,0
19.82241178,0,0,0,0
19.83355474,0,0,0,0
19.837816,0,0,0,0
19.84879017,0,0,0,0
19.86563063,0,0,0,0
19.87474155,0,0,0,0
19.87926078,0,0,0,0
19.89402127,0,0,0,0
19.90463209,0,0,0,0
19.90726805,0,0,0,0
19.92456961,0,0,0,0
19.93457651,0,0,0,0
19.94109702,0,0,0,0
19.95474887,0,0,0,0
19.96007609,0,0,0,0
19.97556782,0,0,0,0
19.97645998,0,0,0,0
19.99065852,0,0,0,0
20.00476408,0,0,0,0
20.01511121,0,0,0,0
20.02517033,0,0,0,0
20.04311872,0,0,0,0
20.04812574,0,0,0,0
20.05703163,0,0,0,0
20.06524825,0,0,0,0
20.07014155,0,0,0,0
20.08538651,0,0,0,0
20.09093928,0,0,0,0
20.10617566,0,0,0,0
20.11551833,0,0,0,0
20.12463355,0,0,0,0
20.13530707,0,0,0,0
20.14524221,0,0,0,0
20.15517592,0,0,0,0
20.15925765,0,0,0,0
20.17490482,0,0,0,0
20.18113065,0,0,0,0
20.19309211,0,0,0,0
20.20573211,0,0,0,0
20.21320868,0,0,0,0
20.2253592,0,0,0,0
20.23524213,0,0,0,0
20.24399805,0,0,0,0
20.25464416,0,0,0,0
20.26552749,0,0,0,0
20.27428269,0,0,0,0
20.28471303,0,0,0,0
20.29354286,0,0,0,0
20.30546689,0,0,0,0
20.3123343,0,0,0,0
20.32337642,0,0,0,0
20.33140159,0,0,0,0
20.34544158,0,0,0,0
20.35345387,0,0,0,0
20.36268759,0,0,0,0
20.37539673,0,0,0,0
20.38541317,0,0,0,0
20.38898253,0,0,0,0
20.39903116,0,0,0,0
20.40903044,0,0,0,0
20.42199278,0,0,0,0
20.43541837,0,0,0,0
20.44542789,0,0,0,0
20.45546794,0,0,0,0
20.45646572,0,0,0,0
20.46648169,0,0,0,0
20.47648263,0,0,0,0
20.48648214,0,0,0,0
20.50535321,0,0,0,0
20.50960875,0,0,0,0
20.52324653,0,0,0,0
20.53527474,1083,0,0,0
20.53895998,0,0,0,0
20.55550551,0,0,0,0
20.56486726,0,0,0,0
20.57351208,0,0,0,0
20.58352733,0,0,0,0
20.59541845,0,0,0,0
20.6052494,0,0,0,0
20.61272478,0,0,0,0
20.62618232,0,0,0,0
20.63572717,0,0,0,0
20.6451962,0,0,0,0
20.65524697,0,0,0,0
20.66536331,0,0,0,0
20.67570496,0,0,0,0
20.68061447,0,0,0,0
20.69487453,0,0,0,0
20.70508623,0,0,0,0
20.71108961,913,0,0,0
20.72552037,0,0,0,0
20.73545742,0,0,0,0
20.745718,0,0,0,0
20.75535822,0,0,0,0
20.76522851,0,0,0,0
20.77532744,0,0,0,0
20.78344178,0,0,0,0
20.79085183,0,0,0,0
20.8050282,0,0,0,0
20.81492972,0,0,0,0
20.8210566,0,0,0,0
20.83325481,0,0,0,0
20.84084558,0,0,0,0
20.8551538,0,0,0,0
20.85714793,0,0,0,0
20.87195063,0,0,0,0
20.88199139,0,0,0,0
20.89454508,0,0,0,0
20.90547967,0,0,0,0
20.90873718,0,0,0,0
20.9222827,0,0,0,0
20.93029833,0,0,0,0
20.94488621,0,0,0,0
20.95462871,0,0,0,0
20.96590328,0,0,0,0
20.97131205,0,0,0,0
20.97932148,0,0,0,0
20.99576068,0,0,0,0
20.99576068,0,0,0,0
21.01584625,0,0,0,0
21.0176816,0,0,0,0
21.02772832,0,0,0,0
21.04006982,0,0,0,0
21.05481672,0,0,0,0
21.06406212,0,0,0,0
21.07184601,1707,0,0,0
21.0806489,0,0,0,0
21.09579444,0,0,0,0
21.10587811,0,0,0,0
21.11254311,0,0,0,0
21.12494016,0,0,0,0
21.13422227,0,0,0,0
21.14198351,0,0,0,0
21.15526319,1424,0,0,0
21.16390944,0,0,0,0
21.17515063,0,0,0,0
21.1811173,0,0,0,0
21.19473028,0,0,0,0
21.20507669,0,0,0,0
21.21558022,0,0,0,0
21.22510266,0,0,0,0
21.23144102,0,0,0,0
21.24399781,0,0,0,0
21.25552845,0,0,0,0
21.26336908,0,0,0,0
21.27490401,0,0,0,0
21.27690101,0,0,0,0
21.29400182,0,0,0,0
21.30429339,0,0,0,0
21.31568551,0,0,0,0
21.32547379,0,0,0,0
21.33101892,0,0,0,0
21.34550643,0,0,0,0
21.35526252,0,0,0,0
21.36521864,0,0,0,0
21.37475896,0,0,0,0
21.37666631,0,0,0,0
21.39208889,0,0,0,0
21.40907955,0,0,0,0
21.41397953,0,0,0,0
21.42465615,0,0,0,0
21.43075919,0,0,0,0
21.44364929,0,0,0,0
21.45524001,0,0,0,0
21.46536708,0,0,0,0
21.47538424,0,0,0,0
21.47807884,0,0,0,0
21.49379992,0,0,0,0
21.50500107,0,0,0,0
21.5150454,1162,0,0,0
21.5255723,0,0,0,0
21.53183651,0,0,0,0
21.54352117,0,0,0,0
21.55549884,0,0,0,0
21.56359839,0,0,0,0
21.57457137,0,0,0,0
21.58412361,0,0,0,0
21.59533811,0,0,0,0
21.60472798,0,0,0,0
21.61484027,0,0,0,0
21.62523866,0,0,0,0
21.63028622,0,0,0,0
21.64532137,0,0,0,0
21.6554749,0,0,0,0
21.66024423,0,0,0,0
21.67480421,0,0,0,0
21.67684937,0,0,0,0
21.69368005,0,0,0,0
21.70529556,0,0,0,0
21.71293092,0,0,0,0
21.72504687,0,0,0,0
21.73292041,0,0,0,0
21.74463439,0,0,0,0
21.75495172,0,0,0,0
21.76425242,0,0,0,0
21.77550387,0,0,0,0
21.77650285,0,0,0,0
21.79491043,0,0,0,0
21.80545902,0,0,0,0
21.81354618,0,0,0,0
21.82464266,0,0,0,0
21.835495,0,0,0,0
21.84546876,0,0,0,0
21.85545611,0,0,0,0
21.86392641,0,0,0,0
21.8754766,0,0,0,0
21.88458419,0,0,0,0
21.89412045,0,0,0,0
21.90512848,2096,0,0,0
21.91574931,0,0,0,0
21.92548919,0,0,0,0
21.93108177,0,0,0,0
21.94562292,0,0,0,0
21.9551549,0,0,0,0
21.96257019,0,0,0,0
21.97483087,0,0,0,0
21.9768281,0,0,0,0
21.99374557,0,0,0,0
22.00533199,0,0,0,0
22.01385212,0,0,0,0
22.02533889,0,0,0,0
22.02816629,0,0,0,0
22.04550266,0,0,0,0
22.05535674,0,0,0,0
22.06329703,0,0,0,0
22.07466507,0,0,0,0
22.08055353,0,0,0,0
22.09363651,0,0,0,0
22.10510468,0,0,0,0
22.11574411,0,0,0,0
22.12520242,0,0,0,0
22.13040662,0,0,0,0
22.1454699,0,0,0,0
22.15502167,0,0,0,0
22.16516876,0,0,0,0
22.17544818,0,0,0,0
22.18505168,0,0,0,0
22.19497228,0,0,0,0
22.20539689,0,0,0,0
22.21411562,0,0,0,0
22.22297835,0,0,0,0
22.23550224,0,0,0,0
22.24253941,2892,0,0,0
22.25532818,0,0,0,0
22.265728,0,0,0,0
22.27546144,0,0,0,0
22.28331852,0,0,0,0
22.29562044,2838,0,0,0
22.30527973,353,0,0,0
22.31246829,0,0,0,0
22.3245759,0,0,0,0
22.33557129,0,0,0,0
22.34287786,0,0,0,0
22.35515189,0,0,0,0
22.36310959,0,0,0,0
22.37478995,0,0,0,0
22.38026381,0,0,0,0
22.39583445,0,0,0,0
22.40532732,0,0,0,0
22.41338897,0,0,0,0
22.42515349,0,0,0,0
22.43548346,0,0,0,0
22.44471359,0,0,0,0
22.45528007,0,0,0,0
22.46135592,0,0,0,0
22.47534132,0,0,0,0
22.47958326,0,0,0,0
22.49513388,0,0,0,0
22.50515175,0,0,0,0
22.51069856,0,0,0,0
22.52512717,0,0,0,0
22.52708721,0,0,0,0
22.54499221,0,0,0,0
22.55406785,0,0,0,0
22.56401825,0,0,0,0
22.57545877,0,0,0,0
22.57839465,0,0,0,0
22.59464335,0,0,0,0
22.605196,0,0,0,0
22.61062646,0,0,0,0
22.62497067,0,0,0,0
22.62786555,0,0,0,0
22.6455369,0,0,0,0
22.65524125,0,0,0,0
22.66545463,0,0,0,0
22.67462921,0,0,0,0
22.68024158,1269,0,0,0
22.69573975,0,0,0,0
22.70552325,0,0,0,0
22.71561885,0,0,0,0
22.72484326,0,0,0,0
22.734267,0,0,0,0
22.7457602,0,0,0,0
22.75507522,0,0,0,0
22.76565742,0,0,0,0
22.77538753,0,0,0,0
22.78565693,0,0,0,0
22.79571509,0,0,0,0
22.80490613,0,0,0,0
22.80811214,0,0,0,0
22.825454,0,0,0,0
22.83113122,0,0,0,0
22.84349298,0,0,0,0
22.85578108,0,0,0,0
22.86540818,0,0,0,0
22.87551832,0,0,0,0
22.88484788,0,0,0,0
22.8933599,0,0,0,0
22.90521646,0,0,0,0
22.91078305,0,0,0,0
22.92498875,0,0,0,0
22.93169904,0,0,0,0
22.94363284,0,0,0,0
22.95498252,0,0,0,0
22.96354294,0,0,0,0
22.97481394,0,0,0,0
22.9768064,0,0,0,0
22.99522948,0,0,0,0
23.00505066,0,0,0,0
23.01490235,0,0,0,0
23.02506018,0,0,0,0
23.03026986,0,0,0,0
23.04332018,0,0,0,0
23.05518222,0,0,0,0
23.06546569,0,0,0,0
23.07467055,0,0,0,0
23.08486962,0,0,0,0
23.09362793,0,0,0,0
23.10391545,0,0,0,0
23.11041641,0,0,0,0
23.12473869,0,0,0,0
23.13284612,0,0,0,0
23.14535737,0,0,0,0
23.15522695,0,0,0,0
23.16334343,0,0,0,0
23.17481351,0,0,0,0
23.17693806,0,0,0,0
23.19391441,0,0,0,0
23.2053833,0,0,0,0
23.21530271,0,0,0,0
23.22501993,0,0,0,0
23.2299192,0,0,0,0
23.24477577,0,0,0,0
23.25541735,0,0,0,0
23.26032209,0,0,0,0
23.27518153,0,0,0,0
23.28295851,0,0,0,0
23.29527354,0,0,0,0
23.3051641,0,0,0,0
23.31457496,0,0,0,0
23.3253417,0,0,0,0
23.32891107,0,0,0,0
23.34547925,0,0,0,0
23.35549116,0,0,0,0
23.36107206,0,0,0,0
23.37488174,0,0,0,0
23.37701821,0,0,0,0
23.39346457,0,0,0,0
23.40553451,0,0,0,0
23.41023183,0,0,0,0
23.42506671,0,0,0,0
23.42606568,0,0,0,0
23.44417787,0,0,0,0
23.45537949,0,0,0,0
23.46136498,0,0,0,0
23.47484827,0,0,0,0
23.47687364,0,0,0,0
23.49379277,0,0,0,0
23.50516653,0,0,0,0
23.51583672,0,0,0,0
23.52472043,0,0,0,0
23.53034782,0,0,0,0
23.54417419,0,0,0,0
23.55499148,0,0,0,0
23.56575966,0,0,0,0
23.57544827,0,0,0,0
23.57759118,0,0,0,0
23.59434819,0,0,0,0
23.60531092,0,0,0,0
23.61430931,912,0,0,0
23.62501836,0,0,0,0
23.62965751,0,0,0,0
23.64561296,0,0,0,0
23.65541887,0,0,0,0
23.66406131,0,0,0,0
23.67509389,0,0,0,0
23.68433523,0,0,0,0
23.69396758,0,0,0,0
23.70598984,0,0,0,0
23.71552896,0,0,0,0
23.72517967,0,0,0,0
23.73199821,0,0,0,0
23.74563789,0,0,0,0
23.7554915,0,0,0,0
23.76511145,0,0,0,0
23.7753787,0,0,0,0
23.78380442,0,0,0,0
23.79553699,0,0,0,0
23.80523181,0,0,0,0
23.81443429,0,0,0,0
23.82520103,0,0,0,0
23.83076882,0,0,0,0
23.84300947,0,0,0,0
23.85525846,0,0,0,0
23.86544275,0,0,0,0
23.87498355,0,0,0,0
23.8813355,0,0,0,0
23.8952899,0,0,0,0
23.90517068,0,0,0,0
23.914855,0,0,0,0
23.9247396,0,0,0,0
23.93537092,0,0,0,0
23.94376183,0,0,0,0
23.95508003,0,0,0,0
23.95895624,0,0,0,0
23.97524333,0,0,0,0
23.98027682,0,0,0,0
23.99537635,0,0,0,0
24.00537658,0,0,0,0
24.01176357,0,0,0,0
24.02473021,0,0,0,0
24.02672482,0,0,0,0
24.04332471,0,0,0,0
24.05505133,0,0,0,0
24.06554818,0,0,0,0
24.07478952,0,0,0,0
24.08051229,0,0,0,0
24.09525514,0,0,0,0
24.10515451,1079,0,0,0
24.11380601,0,0,0,0
24.12542343,0,0,0,0
24.13542557,155,0,0,0
24.14511228,1008,0,0,0
24.15527225,364,0,0,0
24.1658318,2422,0,0,0
24.17510867,0,0,0,0
24.18320251,0,0,0,0
24.19581103,0,0,0,0
24.20374537,0,0,0,0
24.21577334,0,0,0,0
24.22505403,0,0,0,0
24.23482108,0,0,0,0
24.24331522,0,0,0,0
24.25536275,0,0,0,0
24.26457906,0,0,0,0
24.27527094,0,0,0,0
24.28564262,0,0,0,0
24.2955122,0,0,0,0
24.30518532,0,0,0,0
24.31082916,0,0,0,0
24.32474375,0,0,0,0
24.32574224,0,0,0,0
24.34551835,0,0,0,0
24.3549993,0,0,0,0
24.36517382,0,0,0,0
24.37552619,0,0,0,0
24.37825465,0,0,0,0
24.39565825,0,0,0,0
24.40523028,0,0,0,0
24.40963745,0,0,0,0
24.42512298,0,0,0,0
24.43274736,0,0,0,0
24.4439168,0,0,0,0
24.45513988,0,0,0,0
24.46343589,0,0,0,0
24.47535753,0,0,0,0
24.48032641,0,0,0,0
24.49459314,0,0,0,0
24.5051074,0,0,0,0
24.50941348,0,0,0,0
24.5248096,0,0,0,0
24.52580786,0,0,0,0
24.54337788,0,0,0,0
24.55480695,0,0,0,0
24.56395769,704,0,0,0
24.57290649,0,0,0,0
24.58225632,0,0,0,0
24.59562588,0,0,0,0
24.60498166,0,0,0,0
24.61370373,0,0,0,0
24.62501431,0,0,0,0
24.63411474,0,0,0,0
24.64564681,64,0,0,0
24.65498042,1611,0,0,0
24.66369081,0,0,0,0
24.67516065,0,0,0,0
24.68580437,270,0,0,0
24.69560289,0,0,0,0
24.70494413,0,0,0,0
24.71421885,0,0,0,0
24.72503209,0,0,0,0
24.7308023,0,0,0,0
24.74584818,0,0,0,0
24.7553432,0,0,0,0
24.76309371,0,0,0,0
24.77533531,0,0,0,0
24.78548908,0,0,0,0
24.79569077,0,0,0,0
24.80489588,0,0,0,0
24.80910516,0,0,0,0
24.82537699,0,0,0,0
24.83115029,0,0,0,0
24.84553146,0,0,0,0
24.8550384,0,0,0,0
24.86296034,0,0,0,0
24.87476754,0,0,0,0
24.8758018,0,0,0,0
24.89320493,0,0,0,0
24.90361094,0,0,0,0
24.915308,0,0,0,0
24.92491579,0,0,0,0
24.92991185,0,0,0,0
24.94541144,0,0,0,0
24.95487404,0,0,0,0
24.96067047,0,0,0,0
24.97521639,0,0,0,0
24.98554182,0,0,0,0
24.99302554,0,0,0,0
25.00486135,0,0,0,0
25.01484585,0,0,0,0
25.02517915,0,0,0,0
25.0293901,0,0,0,0
25.04568005,0,0,0,0
25.05514336,0,0,0,0
25.06001711,0,0,0,0
25.07552624,0,0,0,0
25.07751203,0,0,0,0
25.09547496,0,0,0,0
25.1050725,0,0,0,0
25.11337328,0,0,0,0
25.12510014,0,0,0,0
25.13030195,0,0,0,0
25.14542866,0,0,0,0
25.15359855,0,0,0,0
25.16334796,0,0,0,0
25.17568302,0,0,0,0
25.18590117,0,0,0,0
25.19555211,0,0,0,0
25.20493937,0,0,0,0
25.21541429,0,0,0,0
25.2249465,0,0,0,0
25.23174214,0,0,0,0
25.24530959,0,0,0,0
25.25491333,0,0,0,0
25.26252294,0,0,0,0
25.27538991,0,0,0,0
25.28556299,0,0,0,0
25.29541206,0,0,0,0
25.30498672,2894,0,0,0
25.31479692,0,0,0,0
25.32442474,0,0,0,0
25.33110523,0,0,0,0
25.34544492,0,0,0,0
25.35482001,0,0,0,0
25.36390257,0,0,0,0
25.37544107,0,0,0,0
25.37743449,0,0,0,0
25.39506769,0,0,0,0
25.40489817,0,0,0,0
25.41227913,0,0,0,0
25.42527914,0,0,0,0
25.43527889,0,0,0,0
25.44075131,0,0,0,0
25.45513344,0,0,0,0
25.46045518,0,0,0,0
25.47547698,0,0,0,0
25.48202062,0,0,0,0
25.49379206,0,0,0,0
25.50489807,0,0,0,0
25.51336026,0,0,0,0
25.5246582,0,0,0,0
25.52882767,0,0,0,0
25.54345536,0,0,0,0
25.55474472,0,0,0,0
25.56536579,0,0,0,0
25.57553291,0,0,0,0
25.58155727,0,0,0,0
25.59348512,0,0,0,0
25.60542607,0,0,0,0
25.6131022,0,0,0,0
25.62260747,0,0,0,0
25.63560319,0,0,0,0
25.64211154,0,0,0,0
25.65517688,0,0,0,0
25.66491175,0,0,0,0
25.67557359,0,0,0,0
25.68124032,0,0,0,0
25.69304228,0,0,0,0
25.70507145,0,0,0,0
25.71310234,0,0,0,0
25.72530961,0,0,0,0
25.7273016,0,0,0,0
25.7437129,1328,0,0,0
25.75513744,0,0,0,0
25.76109242,0,0,0,0
25.77467346,0,0,0,0
25.78204703,0,0,0,0
25.79486275,0,0,0,0
25.80513978,0,0,0,0
25.81455064,0,0,0,0
25.82545972,0,0,0,0
25.83571482,0,0,0,0
25.84393477,0,0,0,0
25.85536385,0,0,0,0
25.86581445,0,0,0,0
25.87526274,0,0,0,0
25.87728524,0,0,0,0
25.8956728,0,0,0,0
25.90535474,0,0,0,0
25.91439724,0,0,0,0
25.92532754,0,0,0,0
25.93042636,0,0,0,0
25.94306159,0,0,0,0
25.95525765,0,0,0,0
25.96354651,0,0,0,0
25.97548223,0,0,0,0
25.97648001,0,0,0,0
25.995502,0,0,0,0
26.00484157,0,0,0,0
26.01067352,0,0,0,0
26.02548361,0,0,0,0
26.03577757,0,0,0,0
26.04541445,0,0,0,0
26.05463862,0,0,0,0
26.06327701,0,0,0,0
26.07553506,0,0,0,0
26.07943559,0,0,0,0
26.09384418,0,0,0,0
26.10486221,0,0,0,0
26.11007166,0,0,0,0
26.12552714,0,0,0,0
26.12652564,0,0,0,0
26.14410496,0,0,0,0
26.15487838,0,0,0,0
26.16566873,0,0,0,0
26.1752286,0,0,0,0
26.18592334,0,0,0,0
26.19537091,0,0,0,0
26.2047379,0,0,0,0
26.21272135,0,0,0,0
26.22537994,0,0,0,0
26.22637844,0,0,0,0
26.2444005,0,0,0,0
26.2548089,0,0,0,0
26.26534581,0,0,0,0
26.27452564,0,0,0,0
26.28290772,0,0,0,0
26.29554963,0,0,0,0
26.30481291,0,0,0,0
26.31592584,0,0,0,0
26.32558799,0,0,0,0
26.33570504,0,0,0,0
26.34523201,0,0,0,0
26.35485244,0,0,0,0
26.36303878,0,0,0,0
26.3749938,0,0,0,0
26.37922525,0,0,0,0
26.39542317,0,0,0,0
26.40464687,0,0,0,0
26.40993905,0,0,0,0
26.42556119,0,0,0,0
26.43072653,0,0,0,0
26.44447136,0,0,0,0
26.45473766,0,0,0,0
26.46261215,0,0,0,0
26.47222185,0,0,0,0
26.48562527,0,0,0,0
26.49268079,0,0,0,0
26.5046308,0,0,0,0
26.50945926,0,0,0,0
26.52519059,0,0,0,0
26.52618742,0,0,0,0
26.54312205,0,0,0,0
26.5547049,0,0,0,0
26.55902457,0,0,0,0
26.57521081,0,0,0,0
26.57618833,0,0,0,0
26.59286976,0,0,0,0
26.60499477,0,0,0,0
26.60965276,0,0,0,0
26.62555289,0,0,0,0
26.62642956,0,0,0,0
26.64288545,0,0,0,0
26.65502,0,0,0,0
26.65964985,0,0,0,0
26.67538238,0,0,0,0
26.68589473,0,0,0,0
26.69534707,0,0,0,0
26.70566416,0,0,0,0
26.7094624,0,0,0,0
26.72511673,0,0,0,0
26.72609615,0,0,0,0
26.743016,0,0,0,0
26.7547152,0,0,0,0
26.7596395,0,0,0,0
26.77518272,0,0,0,0
26.77613044,0,0,0,0
26.7929976,0,0,0,0
26.80505228,0,0,0,0
26.81026959,0,0,0,0
26.82530284,0,0,0,0
26.82630157,0,0,0,0
26.84327769,0,0,0,0
26.85478234,0,0,0,0
26.85961461,0,0,0,0
26.8751049,0,0,0,0
26.87609696,0,0,0,0
26.89514542,0,0,0,0
26.90461111,0,0,0,0
26.9150815,0,0,0,0
26.92516565,0,0,0,0
26.92616558,0,0,0,0
26.94364548,0,0,0,0
26.95471311,0,0,0,0
26.95961857,0,0,0,0
26.97517538,0,0,0,0
26.97617531,0,0,0,0
26.99306607,0,0,0,0
27.00472426,0,0,0,0
27.01010513,0,0,0,0
27.02526689,0,0,0,0
27.02625155,0,0,0,0
27.04344916,0,0,0,0
27.05542207,0,0,0,0
27.0600605,0,0,0,0
27.07542634,0,0,0,0
27.07742167,0,0,0,0
27.09315515,0,0,0,0
27.1052711,0,0,0,0
27.11527896,0,0,0,0
27.12225151,0,0,0,0
27.1340735,0,0,0,0
27.14266992,0,0,0,0
27.15556574,0,0,0,0
27.15934086,0,0,0,0
27.17471147,0,0,0,0
27.17960691,0,0,0,0
27.19257855,0,0,0,0
27.20459151,0,0,0,0
27.20912743,0,0,0,0
27.2254107,0,0,0,0
27.22640729,0,0,0,0
27.24267292,0,0,0,0
27.25477672,0,0,0,0
27.26452518,0,0,0,0
27.27540421,0,0,0,0
27.280195,0,0,0,0
27.29254246,0,0,0,0
27.3047204,0,0,0,0
27.30965877,0,0,0,0
27.32495213,0,0,0,0
27.33521748,0,0,0,0
27.34556413,0,0,0,0
27.3553431,0,0,0,0
27.36346436,0,0,0,0
27.37525177,0,0,0,0
27.37624812,0,0,0,0
27.39540958,0,0,0,0
27.40471649,0,0,0,0
27.41251755,0,0,0,0
27.42517638,0,0,0,0
27.42717099,0,0,0,0
27.44254184,0,0,0,0
27.45543671,0,0,0,0
27.46344399,0,0,0,0
27.47561622,0,0,0,0
27.47661519,0,0,0,0
27.49302053,0,0,0,0
27.5049386,0,0,0,0
27.50981832,0,0,0,0
27.52356935,0,0,0,0
27.53576541,0,0,0,0
27.54548502,0,0,0,0
27.55490422,0,0,0,0
27.56306314,0,0,0,0
27.57523823,0,0,0,0
27.57623672,0,0,0,0
27.58919311,0,0,0,0
27.60591745,0,0,0,0
27.61392498,0,0,0,0
27.62535691,0,0,0,0
27.63451719,0,0,0,0
27.64489174,0,0,0,0
27.65517211,0,0,0,0
27.66029739,0,0,0,0
27.67123413,0,0,0,0
27.67924261,0,0,0,0
27.69588089,0,0,0,0
27.70575833,0,0,0,0
27.70675445,0,0,0,0
27.72359538,0,0,0,0
27.733675,0,0,0,0
27.73845363,0,0,0,0
27.75415945,0,0,0,0
27.76556063,0,0,0,0
27.77187896,0,0,0,0
27.78104711,0,0,0,0
27.78814745,0,0,0,0
27.80511951,0,0,0,0
27.81529498,0,0,0,0
27.8217473,0,0,0,0
27.83413792,0,0,0,0
27.84039497,0,0,0,0
27.85510015,0,0,0,0
27.86531162,0,0,0,0
27.87574625,0,0,0,0
27.88575768,0,0,0,0
27.88802052,0,0,0,0
27.90557599,0,0,0,0
27.91457391,0,0,0,0
27.92108822,0,0,0,0
27.92913556,0,0,0,0
27.94567776,0,0,0,0
27.9552114,0,0,0,0
27.956218,0,0,0,0
27.97538185,0,0,0,0
27.97637796,0,0,0,0
27.98954773,0,0,0,0
28.00564432,0,0,0,0
28.01367044,0,0,0,0
28.02174783,0,0,0,0
28.03176284,0,0,0,0
28.04176283,0,0,0,0
28.05176592,0,0,0,0
28.06309724,0,0,0,0
28.07311726,0,0,0,0
28.08311439,0,0,0,0
28.09311438,0,0,0,0
28.10311437,0,0,0,0
28.11564732,0,0,0,0
28.12565494,0,0,0,0
28.13565373,0,0,0,0
28.14565444,0,0,0,0
28.14565444,0,0,0,0
28.15566826,0,0,0,0
28.16566777,0,0,0,0
28.1756537,0,0,0,0
28.1952281,0,0,0,0
28.20513654,0,0,0,0
28.21412659,0,0,0,0
28.22065187,0,0,0,0
28.22869658,0,0,0,0
28.23736405,0,0,0,0
28.24957132,0,0,0,0
28.26081204,0,0,0,0
28.27192259,0,0,0,0
28.28308654,0,0,0,0
28.2931273,0,0,0,0
28.30312848,0,0,0,0
28.31312776,0,0,0,0
28.32312679,0,0,0,0
28.33312726,0,0,0,0
28.34312773,0,0,0,0
28.35312724,0,0,0,0
28.36544442,0,0,0,0
28.37546062,0,0,0,0
28.3854599,0,0,0,0
28.39545608,0,0,0,0
28.40601635,0,0,0,0
28.41538024,0,0,0,0
28.42190623,0,0,0,0
28.42990828,0,0,0,0
28.44543648,0,0,0,0
28.45492077,0,0,0,0
28.46540999,810,0,0,0
28.46941447,0,0,0,0
28.47946882,0,0,0,0
28.48945165,0,0,0,0
28.49946666,0,0,0,0
28.50945258,0,0,0,0
28.51945281,0,0,0,0
28.52945256,0,0,0,0
28.53945279,0,0,0,0
28.54945254,0,0,0,0
28.55945158,0,0,0,0
28.56945133,0,0,0,0
28.58542728,0,0,0,0
28.59543633,0,0,0,0
28.60545707,0,0,0,0
28.61555243,0,0,0,0
28.62414098,0,0,0,0
28.63215637,0,0,0,0
28.64357162,0,0,0,0
28.65540576,0,0,0,0
28.66351914,38,0,0,0
28.67088318,0,0,0,0
28.67889786,0,0,0,0
28.68793416,0,0,0,0
28.69793987,0,0,0,0
28.70795107,0,0,0,0
28.71794033,0,0,0,0
28.73000693,0,0,0,0
28.74002194,0,0,0,0
28.75002193,0,0,0,0
28.76002145,0,0,0,0
28.77002168,0,0,0,0
28.78542757,0,0,0,0
28.79543972,0,0,0,0
28.80559349,0,0,0,0
28.81530833,0,0,0,0
28.82185602,0,0,0,0
28.82987309,262,0,0,0
28.84534431,0,0,0,0
28.85482907,0,0,0,0
28.86497474,0,0,0,0
28.8659718,0,0,0,0
28.8759954,0,0,0,0
28.88597965,0,0,0,0
28.8959825,0,0,0,0
28.9059813,0,0,0,0
28.91598105,0,0,0,0
28.92600274,0,0,0,0
28.93598247,1473,0,0,0
28.94598222,0,0,0,0
28.95598125,0,0,0,0
28.96598125,0,0,0,0
28.97598124,0,0,0,0
28.98598242,0,0,0,0
28.99598122,0,0,0,0
29.00598121,0,0,0,0
29.02505779,1207,0,0,0
29.0348773,0,0,0,0
29.04519224,0,0,0,0
29.05541277,0,0,0,0
29.06342268,0,0,0,0
29.07076335,0,0,0,0
29.07877898,166,0,0,0
29.08781075,0,0,0,0
29.09781718,1012,0,0,0
29.10781741,0,0,0,0
29.11781836,0,0,0,0
29.12781835,0,0,0,0
29.13781714,0,0,0,0
29.14781737,0,0,0,0
29.15781713,0,0,0,0
29.16781712,0,0,0,0
29.17782974,0,0,0,0
29.1878171,0,0,0,0
29.19781828,0,0,0,0
29.20782757,0,0,0,0
29.21781731,0,0,0,0
29.22781754,0,0,0,0
29.24528241,2702,0,0,0
29.25495577,0,0,0,0
29.26296592,336,0,0,0
29.27044868,0,0,0,0
29.27954483,0,0,0,0
29.28722572,0,0,0,0
29.29723811,0,0,0,0
29.3072381,0,0,0,0
29.31723833,0,0,0,0
29.32723808,0,0,0,0
29.33725882,0,0,0,0
29.34723806,0,0,0,0
29.35725379,0,0,0,0
29.3754282,0,0,0,0
29.38543677,1904,0,0,0
29.39544368,0,0,0,0
29.40544057,0,0,0,0
29.41544056,0,0,0,0
29.4254396,0,0,0,0
29.43543696,0,0,0,0
29.44544029,0,0,0,0
29.4555707,0,0,0,0
29.46516371,0,0,0,0
29.47068596,0,0,0,0
29.47964525,0,0,0,0
29.49508548,0,0,0,0
29.50479817,0,0,0,0
29.51491284,0,0,0,0
29.51594114,0,0,0,0
29.52594924,0,0,0,0
29.53695726,0,0,0,0
29.54696345,0,0,0,0
29.55696464,0,0,0,0
29.5669899,0,0,0,0
29.57832122,0,0,0,0
29.58833766,0,0,0,0
29.59835935,0,0,0,0
29.60833669,451,0,0,0
29.6254425,0,0,0,0
29.63545108,0,0,0,0
29.64545465,0,0,0,0
29.65545654,0,0,0,0
29.66555452,0,0,0,0
29.67506576,0,0,0,0
29.68409038,0,0,0,0
29.69494891,0,0,0,0
29.70543861,0,0,0,0
29.71344829,379,0,0,0
29.72061801,0,0,0,0
29.72863197,0,0,0,0
29.73868871,0,0,0,0
29.74870062,0,0,0,0
29.75870037,0,0,0,0
29.76870036,0,0,0,0
29.77870035,0,0,0,0
29.78870034,0,0,0,0
29.798702,0,0,0,0
29.80984426,0,0,0,0
29.81988096,0,0,0,0
29.82987428,0,0,0,0
29.83987331,0,0,0,0
29.8498733,0,0,0,0
29.85987449,0,0,0,0
29.86988664,0,0,0,0
29.88252544,0,0,0,0
29.89240909,0,0,0,0
29.90508819,0,0,0,0
29.91314626,0,0,0,0
29.92032337,0,0,0,0
29.92833114,0,0,0,0
29.9370811,0,0,0,0
29.9470942,1974,0,0,0
29.95709538,0,0,0,0
29.96709466,0,0,0,0
29.97709537,0,0,0,0
29.98709416,0,0,0,0
29.99709535,0,0,0,0
