Timestamp,EMG Value,massage_speed,massage_duration,relaxment_level
0.02011275291442871,4095,0.0,0.0,0.0
0.026859045028686523,4095,0.0,0.0,0.0
0.03937673568725586,4095,0.0,0.0,0.0
0.04210019111633301,4095,0.0,0.0,0.0
0.059851884841918945,4095,0.0,0.0,0.0
0.07029151916503906,4095,0.0,0.0,0.0
0.08016777038574219,4095,0.0,0.0,0.0
0.08963823318481445,4095,0.0,0.0,0.0
0.09676170349121094,4095,0.0,0.0,0.0
0.10916566848754883,4095,0.0,0.0,0.0
0.1199331283569336,4095,0.0,0.0,0.0
0.1199331283569336,4095,0.0,0.0,0.0
0.13733482360839844,4095,0.0,0.0,0.0
0.1469414234161377,4095,0.0,0.0,0.0
0.15363740921020508,4095,0.0,0.0,0.0
0.170210599899292,4095,0.0,0.0,0.0
0.1729896068572998,4095,0.0,0.0,0.0
0.1871328353881836,4095,0.0,0.0,0.0
0.19725346565246582,4095,0.0,0.0,0.0
0.20337986946105957,4095,0.0,0.0,0.0
0.2199854850769043,4095,0.0,0.0,0.0
0.2199854850769043,4095,0.0,0.0,0.0
0.23739194869995117,4095,0.0,0.0,0.0
0.24664855003356934,4095,0.0,0.0,0.0
0.25459837913513184,4095,0.0,0.0,0.0
0.2696878910064697,4095,0.0,0.0,0.0
0.27242422103881836,4095,0.0,0.0,0.0
0.28724002838134766,4095,0.0,0.0,0.0
0.2969489097595215,4095,0.0,0.0,0.0
0.3034207820892334,4095,0.0,0.0,0.0
0.31961607933044434,4095,0.0,0.0,0.0
0.32027220726013184,4095,0.0,0.0,0.0
0.33939266204833984,4095,0.0,0.0,0.0
0.34584927558898926,4095,0.0,0.0,0.0
0.3574042320251465,4095,0.0,0.0,0.0
0.36974096298217773,4095,0.0,0.0,0.0
0.36974096298217773,4095,0.0,0.0,0.0
0.3885669708251953,4095,0.0,0.0,0.0
0.39662885665893555,4095,0.0,0.0,0.0
0.40390610694885254,4095,0.0,0.0,0.0
0.41959524154663086,4095,0.0,0.0,0.0
0.4203658103942871,4095,0.0,0.0,0.0
0.43706250190734863,4095,0.0,0.0,0.0
0.4500112533569336,4095,0.0,0.0,0.0
0.45339107513427734,4095,0.0,0.0,0.0
0.46998071670532227,4095,0.0,0.0,0.0
0.46998071670532227,4095,0.0,0.0,0.0
0.48981428146362305,4095,0.0,0.0,0.0
0.4964280128479004,4095,0.0,0.0,0.0
0.5035855770111084,4095,0.0,0.0,0.0
0.5200028419494629,4095,0.0,0.0,0.0
0.5200028419494629,4095,0.0,0.0,0.0
0.537372350692749,4095,0.0,0.0,0.0
0.5498716831207275,4095,0.0,0.0,0.0
0.556774377822876,4095,0.0,0.0,0.0
0.5698099136352539,4095,0.0,0.0,0.0
0.5698099136352539,4095,0.0,0.0,0.0
0.5870928764343262,4095,0.0,0.0,0.0
0.597297191619873,4095,0.0,0.0,0.0
0.6091892719268799,4095,0.0,0.0,0.0
0.6201541423797607,4095,0.0,0.0,0.0
0.6263892650604248,4095,0.0,0.0,0.0
0.6371896266937256,4095,0.0,0.0,0.0
0.64971923828125,4095,0.0,0.0,0.0
0.6574358940124512,4095,0.0,0.0,0.0
0.6701359748840332,4095,0.0,0.0,0.0
0.6701359748840332,4095,0.0,0.0,0.0
0.6891417503356934,4095,0.0,0.0,0.0
0.6891417503356934,4095,0.0,0.0,0.0
0.7096850872039795,4095,0.0,0.0,0.0
0.7197074890136719,4095,0.0,0.0,0.0
0.7197074890136719,4095,0.0,0.0,0.0
0.7373170852661133,4095,0.0,0.0,0.0
0.7495155334472656,4095,0.0,0.0,0.0
0.7535133361816406,4095,0.0,0.0,0.0
0.7700293064117432,4095,0.0,0.0,0.0
0.7700293064117432,4095,0.0,0.0,0.0
0.7869534492492676,4095,0.0,0.0,0.0
0.7963910102844238,4095,0.0,0.0,0.0
0.8047018051147461,4095,0.0,0.0,0.0
0.8196747303009033,4095,0.0,0.0,0.0
0.8202109336853027,4095,0.0,0.0,0.0
0.8369319438934326,4095,0.0,0.0,0.0
0.849200963973999,4095,0.0,0.0,0.0
0.8533782958984375,4095,0.0,0.0,0.0
0.8697867393493652,4095,0.0,0.0,0.0
0.8697867393493652,4095,0.0,0.0,0.0
0.887627363204956,4095,0.0,0.0,0.0
0.8965528011322021,4095,0.0,0.0,0.0
0.9062314033508301,4095,0.0,0.0,0.0
0.9197115898132324,4095,0.0,0.0,0.0
0.9197115898132324,4095,0.0,0.0,0.0
0.9369187355041504,4095,0.0,0.0,0.0
0.9488708972930908,4095,0.0,0.0,0.0
0.9537715911865234,4095,0.0,0.0,0.0
0.9698038101196289,4095,0.0,0.0,0.0
0.9698038101196289,4095,0.0,0.0,0.0
0.9870245456695557,4095,0.0,0.0,0.0
0.9963240623474121,4095,0.0,0.0,0.0
1.003241777420044,4095,0.0,0.0,0.0
1.020165205001831,4095,0.0,0.0,0.0
1.0207273960113525,4095,0.0,0.0,0.0
1.037832260131836,4095,0.0,0.0,0.0
1.0488197803497314,4095,0.0,0.0,0.0
1.0530807971954346,4095,0.0,0.0,0.0
1.0701403617858887,4095,0.0,0.0,0.0
1.0711174011230469,4095,0.0,0.0,0.0
1.0876960754394531,4095,0.0,0.0,0.0
1.0967638492584229,4095,0.0,0.0,0.0
1.102952241897583,4095,0.0,0.0,0.0
1.1201119422912598,4095,0.0,0.0,0.0
1.1211917400360107,4095,0.0,0.0,0.0
1.1368029117584229,4095,0.0,0.0,0.0
1.1492199897766113,4095,0.0,0.0,0.0
1.1534450054168701,4095,0.0,0.0,0.0
1.1701219081878662,4095,0.0,0.0,0.0
1.1701219081878662,4095,0.0,0.0,0.0
1.187220811843872,4095,0.0,0.0,0.0
1.1964001655578613,4095,0.0,0.0,0.0
1.206021785736084,4095,0.0,0.0,0.0
1.2198641300201416,4095,0.0,0.0,0.0
1.2204022407531738,4095,0.0,0.0,0.0
1.23699951171875,4095,0.0,0.0,0.0
1.249258279800415,4095,0.0,0.0,0.0
1.254051923751831,4095,0.0,0.0,0.0
1.2697169780731201,4095,0.0,0.0,0.0
1.2697169780731201,4095,0.0,0.0,0.0
1.2866382598876953,4095,0.0,0.0,0.0
1.2965686321258545,4095,0.0,0.0,0.0
1.3042330741882324,4095,0.0,0.0,0.0
1.3196067810058594,4095,0.0,0.0,0.0
1.321730375289917,4095,0.0,0.0,0.0
1.3374779224395752,4095,0.0,0.0,0.0
1.3491179943084717,4095,0.0,0.0,0.0
1.3533108234405518,4095,0.0,0.0,0.0
1.3696174621582031,4095,0.0,0.0,0.0
1.3696174621582031,4095,0.0,0.0,0.0
1.3868000507354736,4095,0.0,0.0,0.0
1.3966386318206787,4095,0.0,0.0,0.0
1.4038722515106201,4095,0.0,0.0,0.0
1.4199016094207764,4095,0.0,0.0,0.0
1.4264307022094727,4095,0.0,0.0,0.0
1.4370973110198975,4095,0.0,0.0,0.0
1.449063777923584,4095,0.0,0.0,0.0
1.4533350467681885,4095,0.0,0.0,0.0
1.4700114727020264,4095,0.0,0.0,0.0
1.4700114727020264,4095,0.0,0.0,0.0
1.4874989986419678,4095,0.0,0.0,0.0
1.4874989986419678,4095,0.0,0.0,0.0
1.5050697326660156,4095,0.0,0.0,0.0
1.5196759700775146,4095,0.0,0.0,0.0
1.5196759700775146,4095,0.0,0.0,0.0
1.5397136211395264,4095,0.0,0.0,0.0
1.548793077468872,4095,0.0,0.0,0.0
1.5570950508117676,4095,0.0,0.0,0.0
1.569922924041748,4095,0.0,0.0,0.0
1.5724687576293945,4095,0.0,0.0,0.0
1.5870461463928223,4095,0.0,0.0,0.0
1.596691608428955,4095,0.0,0.0,0.0
1.603280782699585,4095,0.0,0.0,0.0
1.619704246520996,4095,0.0,0.0,0.0
1.619704246520996,4095,0.0,0.0,0.0
1.6386685371398926,4095,0.0,0.0,0.0
1.648714303970337,4095,0.0,0.0,0.0
1.6533854007720947,4095,0.0,0.0,0.0
1.670081377029419,4095,0.0,0.0,0.0
1.670081377029419,4095,0.0,0.0,0.0
1.6869032382965088,4095,0.0,0.0,0.0
1.6964986324310303,4095,0.0,0.0,0.0
1.703362226486206,4095,0.0,0.0,0.0
1.720003604888916,4095,0.0,0.0,0.0
1.7223424911499023,4095,0.0,0.0,0.0
1.7397713661193848,4095,0.0,0.0,0.0
1.7487249374389648,4095,0.0,0.0,0.0
1.7532708644866943,4095,0.0,0.0,0.0
1.7698063850402832,4095,0.0,0.0,0.0
1.7698063850402832,4095,0.0,0.0,0.0
1.786991834640503,4095,0.0,0.0,0.0
1.7964792251586914,4095,0.0,0.0,0.0
1.8036630153656006,4095,0.0,0.0,0.0
1.8197591304779053,4095,0.0,0.0,0.0
1.8197591304779053,4095,0.0,0.0,0.0
1.8367929458618164,4095,0.0,0.0,0.0
1.8486223220825195,4095,0.0,0.0,0.0
1.8537483215332031,4095,0.0,0.0,0.0
1.8693788051605225,4095,0.0,0.0,0.0
1.8693788051605225,4095,0.0,0.0,0.0
1.8867390155792236,4095,0.0,0.0,0.0
1.8967382907867432,4095,0.0,0.0,0.0
1.90362548828125,3551,0.0,0.0,0.0
1.9197161197662354,4095,0.0,0.0,0.0
1.9197161197662354,1472,0.0,0.0,0.0
1.9368982315063477,4095,0.0,0.0,0.0
1.9485225677490234,2327,0.0,0.0,0.0
1.9545631408691406,4095,0.0,0.0,0.0
1.9699292182922363,2455,0.0,0.0,0.0
1.9699292182922363,4095,0.0,0.0,0.0
1.9874701499938965,4095,0.0,0.0,0.0
1.9963316917419434,4095,0.0,0.0,0.0
2.003218412399292,4095,0.0,0.0,0.0
2.0197927951812744,4095,0.0,0.0,0.0
2.0197927951812744,4095,0.0,0.0,0.0
2.03680682182312,4095,0.0,0.0,0.0
2.048441171646118,4095,0.0,0.0,0.0
2.054579734802246,4095,0.0,0.0,0.0
2.070058822631836,4095,0.0,0.0,0.0
2.073784589767456,4095,0.0,0.0,0.0
2.087183713912964,4095,0.0,0.0,0.0
2.087183713912964,4095,0.0,0.0,0.0
2.106797933578491,4095,0.0,0.0,0.0
2.1198880672454834,4095,0.0,0.0,0.0
2.1198880672454834,4095,0.0,0.0,0.0
2.136962890625,4095,0.0,0.0,0.0
2.1483259201049805,4095,0.0,0.0,0.0
2.155524492263794,4095,0.0,0.0,0.0
2.169522285461426,4095,0.0,0.0,0.0
2.170503854751587,4095,0.0,0.0,0.0
2.1867258548736572,4095,0.0,0.0,0.0
2.196376085281372,4095,0.0,0.0,0.0
2.2031054496765137,4095,0.0,0.0,0.0
2.2198519706726074,4095,0.0,0.0,0.0
2.2198519706726074,4095,0.0,0.0,0.0
2.236623525619507,4095,0.0,0.0,0.0
2.2494053840637207,4095,0.0,0.0,0.0
2.2596638202667236,4095,0.0,0.0,0.0
2.2700061798095703,4095,0.0,0.0,0.0
2.2759809494018555,4095,0.0,0.0,0.0
2.287132978439331,4095,0.0,0.0,0.0
2.287132978439331,4095,0.0,0.0,0.0
2.307080030441284,4095,0.0,0.0,0.0
2.3197669982910156,4095,0.0,0.0,0.0
2.325528383255005,4095,0.0,0.0,0.0
2.3371903896331787,4095,0.0,0.0,0.0
2.3482110500335693,4095,0.0,0.0,0.0
2.3561999797821045,4095,0.0,0.0,0.0
2.3695812225341797,4095,0.0,0.0,0.0
2.3695812225341797,4095,0.0,0.0,0.0
2.387284517288208,4095,0.0,0.0,0.0
2.3966333866119385,4095,0.0,0.0,0.0
2.403597354888916,4095,0.0,0.0,0.0
2.419637680053711,4095,0.0,0.0,0.0
2.419637680053711,4095,0.0,0.0,0.0
2.437028646469116,4095,0.0,0.0,0.0
2.4478700160980225,4095,0.0,0.0,0.0
2.4554500579833984,4095,0.0,0.0,0.0
2.469877004623413,4095,0.0,0.0,0.0
2.469877004623413,4095,0.0,0.0,0.0
2.488175392150879,4095,0.0,0.0,0.0
2.4963254928588867,4095,0.0,0.0,0.0
2.5030694007873535,4095,0.0,0.0,0.0
2.519655227661133,4095,0.0,0.0,0.0
2.519655227661133,4095,0.0,0.0,0.0
2.5374038219451904,4095,0.0,0.0,0.0
2.5481655597686768,4095,0.0,0.0,0.0
2.553152084350586,4095,0.0,0.0,0.0
2.5698657035827637,4095,0.0,0.0,0.0
2.573345422744751,4095,0.0,0.0,0.0
2.5867321491241455,4095,0.0,0.0,0.0
2.5968854427337646,4095,0.0,0.0,0.0
2.6030373573303223,4095,0.0,0.0,0.0
2.619483470916748,4095,0.0,0.0,0.0
2.620581865310669,4095,0.0,0.0,0.0
2.637129306793213,4095,0.0,0.0,0.0
2.647967576980591,4095,0.0,0.0,0.0
2.6531379222869873,4095,0.0,0.0,0.0
2.6697473526000977,4095,0.0,0.0,0.0
2.6725594997406006,4095,0.0,0.0,0.0
2.686817169189453,4095,0.0,0.0,0.0
2.6963813304901123,4095,0.0,0.0,0.0
2.703195571899414,4095,0.0,0.0,0.0
2.719637155532837,4095,0.0,0.0,0.0
2.719637155532837,4095,0.0,0.0,0.0
2.740029811859131,4095,0.0,0.0,0.0
2.7478322982788086,4095,0.0,0.0,0.0
2.7535781860351562,4095,0.0,0.0,0.0
2.7696166038513184,4095,0.0,0.0,0.0
2.7728965282440186,4095,0.0,0.0,0.0
2.787161111831665,4095,0.0,0.0,0.0
2.7970125675201416,4095,0.0,0.0,0.0
2.8040645122528076,4095,0.0,0.0,0.0
2.8196330070495605,4095,0.0,0.0,0.0
2.8196330070495605,4095,0.0,0.0,0.0
2.8370280265808105,4095,0.0,0.0,0.0
2.847208023071289,4095,0.0,0.0,0.0
2.853612184524536,4095,0.0,0.0,0.0
2.869704008102417,4095,0.0,0.0,0.0
2.869704008102417,4095,0.0,0.0,0.0
2.8877038955688477,4095,0.0,0.0,0.0
2.8962960243225098,4095,0.0,0.0,0.0
2.9037134647369385,4095,0.0,0.0,0.0
2.9201018810272217,4095,0.0,0.0,0.0
2.9201018810272217,4095,0.0,0.0,0.0
2.9368960857391357,4095,0.0,0.0,0.0
2.9469311237335205,4095,0.0,0.0,0.0
2.9600307941436768,4095,0.0,0.0,0.0
2.9700474739074707,4095,0.0,0.0,0.0
2.9760005474090576,4095,0.0,0.0,0.0
2.989590644836426,4095,0.0,0.0,0.0
2.996317148208618,4095,0.0,0.0,0.0
3.0031824111938477,4095,0.0,0.0,0.0
3.0200822353363037,4095,0.0,0.0,0.0
3.0200822353363037,4095,0.0,0.0,0.0
3.0378317832946777,4095,0.0,0.0,0.0
3.0468873977661133,4095,0.0,0.0,0.0
3.0531880855560303,4095,0.0,0.0,0.0
3.070140838623047,4095,0.0,0.0,0.0
3.0705010890960693,4095,0.0,0.0,0.0
3.0901401042938232,4095,0.0,0.0,0.0
3.0964529514312744,4095,0.0,0.0,0.0
3.103088140487671,4095,0.0,0.0,0.0
3.119934320449829,4095,0.0,0.0,0.0
3.1263108253479004,4095,0.0,0.0,0.0
3.1393895149230957,4095,0.0,0.0,0.0
3.1465184688568115,4095,0.0,0.0,0.0
3.1576366424560547,4095,0.0,0.0,0.0
3.1700732707977295,4095,0.0,0.0,0.0
3.1700732707977295,4095,0.0,0.0,0.0
3.1900298595428467,3438,0.0,0.0,0.0
3.1962881088256836,4095,0.0,0.0,0.0
3.203052520751953,4095,0.0,0.0,0.0
3.2201015949249268,4095,0.0,0.0,0.0
3.2201015949249268,4095,0.0,0.0,0.0
3.2373311519622803,4095,0.0,0.0,0.0
3.246582269668579,4095,0.0,0.0,0.0
3.2564761638641357,4095,0.0,0.0,0.0
3.2700188159942627,4095,0.0,0.0,0.0
3.2700188159942627,4095,0.0,0.0,0.0
3.287022352218628,4095,0.0,0.0,0.0
3.297179698944092,4095,0.0,0.0,0.0
3.3048412799835205,4095,0.0,0.0,0.0
3.3199682235717773,4095,0.0,0.0,0.0
3.3204431533813477,4095,0.0,0.0,0.0
3.337944507598877,4095,0.0,0.0,0.0
3.3465659618377686,4095,0.0,0.0,0.0
3.353729724884033,4095,0.0,0.0,0.0
3.3701279163360596,4095,0.0,0.0,0.0
3.3701279163360596,4095,0.0,0.0,0.0
3.387131690979004,4095,0.0,0.0,0.0
3.387131690979004,4095,0.0,0.0,0.0
3.4077799320220947,4095,0.0,0.0,0.0
3.420192003250122,4095,0.0,0.0,0.0
3.420192003250122,4095,0.0,0.0,0.0
3.4376308917999268,4095,0.0,0.0,0.0
3.4469592571258545,4095,0.0,0.0,0.0
3.459348201751709,4095,0.0,0.0,0.0
3.47011399269104,4095,0.0,0.0,0.0
3.4754483699798584,4095,0.0,0.0,0.0
3.487248182296753,4095,0.0,0.0,0.0
3.4962918758392334,4095,0.0,0.0,0.0
3.5056002140045166,4095,0.0,0.0,0.0
3.5201468467712402,4095,0.0,0.0,0.0
3.5201468467712402,4095,0.0,0.0,0.0
3.5378224849700928,4095,0.0,0.0,0.0
3.54679536819458,4095,0.0,0.0,0.0
3.552851676940918,4095,0.0,0.0,0.0
3.5699424743652344,4095,0.0,0.0,0.0
3.5699424743652344,4095,0.0,0.0,0.0
3.5889811515808105,4095,0.0,0.0,0.0
3.597022294998169,4095,0.0,0.0,0.0
3.6030313968658447,4095,0.0,0.0,0.0
3.6199095249176025,4095,0.0,0.0,0.0
3.6211533546447754,4095,0.0,0.0,0.0
3.6369895935058594,4095,0.0,0.0,0.0
3.647240400314331,4095,0.0,0.0,0.0
3.653090715408325,4095,0.0,0.0,0.0
3.66945743560791,4095,0.0,0.0,0.0
3.6703312397003174,4095,0.0,0.0,0.0
3.686788558959961,4095,0.0,0.0,0.0
3.696460485458374,4095,0.0,0.0,0.0
3.7028303146362305,4095,0.0,0.0,0.0
3.719947576522827,4095,0.0,0.0,0.0
3.720186471939087,4095,0.0,0.0,0.0
3.737828493118286,4095,0.0,0.0,0.0
3.7471392154693604,4095,0.0,0.0,0.0
3.7532706260681152,4095,0.0,0.0,0.0
3.770331382751465,4095,0.0,0.0,0.0
3.771984100341797,4095,0.0,0.0,0.0
3.7875001430511475,4095,0.0,0.0,0.0
3.7962019443511963,4095,0.0,0.0,0.0
3.803201675415039,4095,0.0,0.0,0.0
3.8200149536132812,4095,0.0,0.0,0.0
3.8200149536132812,4095,0.0,0.0,0.0
3.8371124267578125,4095,0.0,0.0,0.0
3.8470816612243652,4095,0.0,0.0,0.0
3.8539183139801025,4095,0.0,0.0,0.0
3.8699538707733154,4095,0.0,0.0,0.0
3.8699538707733154,4095,0.0,0.0,0.0
3.886881113052368,4095,0.0,0.0,0.0
3.8960909843444824,4095,0.0,0.0,0.0
3.903427839279175,4095,0.0,0.0,0.0
3.9198875427246094,4095,0.0,0.0,0.0
3.9198875427246094,4095,0.0,0.0,0.0
3.9385719299316406,4095,0.0,0.0,0.0
3.9467475414276123,4095,0.0,0.0,0.0
3.953082799911499,4095,0.0,0.0,0.0
3.9699175357818604,4095,0.0,0.0,0.0
3.9702229499816895,4095,0.0,0.0,0.0
3.98722767829895,4095,0.0,0.0,0.0
3.9964358806610107,4095,0.0,0.0,0.0
4.003152132034302,4095,0.0,0.0,0.0
4.019867420196533,4095,0.0,0.0,0.0
4.019867420196533,4095,0.0,0.0,0.0
4.038333415985107,4095,0.0,0.0,0.0
4.047038316726685,4095,0.0,0.0,0.0
4.053317546844482,4095,0.0,0.0,0.0
4.069766998291016,4095,0.0,0.0,0.0
4.069766998291016,4095,0.0,0.0,0.0
4.086679697036743,4095,0.0,0.0,0.0
4.096559047698975,4095,0.0,0.0,0.0
4.1053314208984375,4095,0.0,0.0,0.0
4.119720697402954,4095,0.0,0.0,0.0
4.119720697402954,4095,0.0,0.0,0.0
4.1391072273254395,4095,0.0,0.0,0.0
4.146690130233765,4095,0.0,0.0,0.0
4.1589601039886475,4095,0.0,0.0,0.0
4.169569253921509,4095,0.0,0.0,0.0
4.169569253921509,4095,0.0,0.0,0.0
4.187392234802246,4095,0.0,0.0,0.0
4.1967175006866455,4095,0.0,0.0,0.0
4.203080415725708,4095,0.0,0.0,0.0
4.219625234603882,4095,0.0,0.0,0.0
4.219625234603882,4095,0.0,0.0,0.0
4.240084886550903,4095,0.0,0.0,0.0
4.247549295425415,4095,0.0,0.0,0.0
4.253441572189331,4095,0.0,0.0,0.0
4.2698962688446045,4095,0.0,0.0,0.0
4.2698962688446045,4095,0.0,0.0,0.0
4.287675619125366,4095,0.0,0.0,0.0
4.296389818191528,4095,0.0,0.0,0.0
4.3030760288238525,4095,0.0,0.0,0.0
4.319868326187134,4095,0.0,0.0,0.0
4.319868326187134,4095,0.0,0.0,0.0
4.337828159332275,4095,0.0,0.0,0.0
4.347005367279053,4095,0.0,0.0,0.0
4.355432510375977,4095,0.0,0.0,0.0
4.369446516036987,4095,0.0,0.0,0.0
4.369446516036987,4095,0.0,0.0,0.0
4.3871190547943115,4095,0.0,0.0,0.0
4.3964293003082275,4095,0.0,0.0,0.0
4.4036545753479,4095,0.0,0.0,0.0
4.419908761978149,4095,0.0,0.0,0.0
4.419908761978149,4095,0.0,0.0,0.0
4.437505483627319,4095,0.0,0.0,0.0
4.4467384815216064,4095,0.0,0.0,0.0
4.459823131561279,4095,0.0,0.0,0.0
4.5025599002838135,4095,0.0,0.0,0.0
4.5025599002838135,4095,0.0,0.0,0.0
4.5025599002838135,4095,0.0,0.0,0.0
4.5025599002838135,4095,0.0,0.0,0.0
4.5025599002838135,4095,0.0,0.0,0.0
4.519880056381226,4095,0.0,0.0,0.0
4.520262956619263,4095,0.0,0.0,0.0
4.536393404006958,4095,0.0,0.0,0.0
4.546712636947632,4095,0.0,0.0,0.0
4.553118467330933,4095,0.0,0.0,0.0
4.5701904296875,4095,0.0,0.0,0.0
4.571284055709839,4095,0.0,0.0,0.0
4.586852073669434,4095,0.0,0.0,0.0
4.596394062042236,4095,0.0,0.0,0.0
4.603019952774048,4095,0.0,0.0,0.0
4.619978189468384,4095,0.0,0.0,0.0
4.620497703552246,4095,0.0,0.0,0.0
4.636682510375977,4095,0.0,0.0,0.0
4.646565914154053,4095,0.0,0.0,0.0
4.653462886810303,4095,0.0,0.0,0.0
4.670090198516846,4095,0.0,0.0,0.0
4.672288417816162,4095,0.0,0.0,0.0
4.6872334480285645,4095,0.0,0.0,0.0
4.696493625640869,4095,0.0,0.0,0.0
4.703156232833862,4095,0.0,0.0,0.0
4.719614744186401,4095,0.0,0.0,0.0
4.719614744186401,4095,0.0,0.0,0.0
4.736987829208374,4095,0.0,0.0,0.0
4.746186017990112,4095,0.0,0.0,0.0
4.753406524658203,4095,0.0,0.0,0.0
4.7696616649627686,4095,0.0,0.0,0.0
4.772321462631226,4095,0.0,0.0,0.0
4.786717653274536,4095,0.0,0.0,0.0
4.79621148109436,4095,0.0,0.0,0.0
4.805540561676025,4095,0.0,0.0,0.0
4.819867849349976,4095,0.0,0.0,0.0
4.819867849349976,4095,0.0,0.0,0.0
4.836628437042236,4095,0.0,0.0,0.0
4.8475611209869385,4095,0.0,0.0,0.0
4.853315591812134,4095,0.0,0.0,0.0
4.869696140289307,4095,0.0,0.0,0.0
4.871327638626099,4095,0.0,0.0,0.0
4.888002157211304,4095,0.0,0.0,0.0
4.896222829818726,4095,0.0,0.0,0.0
4.903112411499023,4095,0.0,0.0,0.0
4.920042514801025,4095,0.0,0.0,0.0
4.920042514801025,4095,0.0,0.0,0.0
4.936856269836426,4095,0.0,0.0,0.0
4.947007179260254,4095,0.0,0.0,0.0
4.9532201290130615,4095,0.0,0.0,0.0
4.969760179519653,4095,0.0,0.0,0.0
4.971203565597534,4095,0.0,0.0,0.0
4.986782789230347,4095,0.0,0.0,0.0
4.9962968826293945,4095,0.0,0.0,0.0
5.003038167953491,4095,0.0,0.0,0.0
5.019350290298462,4095,0.0,0.0,0.0
5.020273208618164,4095,0.0,0.0,0.0
5.036802768707275,4095,0.0,0.0,0.0
5.047197341918945,4095,0.0,0.0,0.0
5.0533447265625,4095,0.0,0.0,0.0
5.069586277008057,4095,0.0,0.0,0.0
5.0715343952178955,4095,0.0,0.0,0.0
5.0867345333099365,4095,0.0,0.0,0.0
5.096641778945923,4095,0.0,0.0,0.0
5.102988243103027,4095,0.0,0.0,0.0
5.1198883056640625,4095,0.0,0.0,0.0
5.120936393737793,4095,0.0,0.0,0.0
5.136992931365967,4095,0.0,0.0,0.0
5.1470489501953125,4095,0.0,0.0,0.0
5.1531689167022705,4095,0.0,0.0,0.0
5.169771671295166,4095,0.0,0.0,0.0
5.169771671295166,4095,0.0,0.0,0.0
5.186960935592651,4095,0.0,0.0,0.0
5.1963982582092285,4095,0.0,0.0,0.0
5.2032530307769775,4095,0.0,0.0,0.0
5.219914674758911,4095,0.0,0.0,0.0
5.219914674758911,4095,0.0,0.0,0.0
5.237452268600464,4095,0.0,0.0,0.0
5.246928453445435,4095,0.0,0.0,0.0
5.25320291519165,4095,0.0,0.0,0.0
5.270153760910034,4095,0.0,0.0,0.0
5.270153760910034,4095,0.0,0.0,0.0
5.28891921043396,4095,0.0,0.0,0.0
5.29606294631958,4095,0.0,0.0,0.0
5.303100824356079,4095,0.0,0.0,0.0
5.319741725921631,4095,0.0,0.0,0.0
5.3212666511535645,4095,0.0,0.0,0.0
5.337501287460327,4095,0.0,0.0,0.0
5.347205638885498,4095,0.0,0.0,0.0
5.352903366088867,4095,0.0,0.0,0.0
5.36966872215271,4095,0.0,0.0,0.0
5.36966872215271,4095,0.0,0.0,0.0
5.3892645835876465,4095,0.0,0.0,0.0
5.396209001541138,4095,0.0,0.0,0.0
5.403659820556641,4095,0.0,0.0,0.0
5.419518232345581,4095,0.0,0.0,0.0
5.419518232345581,4095,0.0,0.0,0.0
5.43677020072937,4095,0.0,0.0,0.0
5.446703910827637,4095,0.0,0.0,0.0
5.4534008502960205,4095,0.0,0.0,0.0
5.4695329666137695,4095,0.0,0.0,0.0
5.4695329666137695,4095,0.0,0.0,0.0
5.488894701004028,4095,0.0,0.0,0.0
5.496496200561523,4095,0.0,0.0,0.0
5.509432792663574,4095,0.0,0.0,0.0
5.5198047161102295,4095,0.0,0.0,0.0
5.5198047161102295,4095,0.0,0.0,0.0
5.537482261657715,4095,0.0,0.0,0.0
5.546838283538818,4095,0.0,0.0,0.0
5.5531158447265625,4095,0.0,0.0,0.0
5.569667339324951,4095,0.0,0.0,0.0
5.569667339324951,4095,0.0,0.0,0.0
5.589811563491821,4095,0.0,0.0,0.0
5.596232652664185,4095,0.0,0.0,0.0
5.6030802726745605,4095,0.0,0.0,0.0
5.62015175819397,4095,0.0,0.0,0.0
5.620704650878906,4095,0.0,0.0,0.0
5.637432813644409,4095,0.0,0.0,0.0
5.646843671798706,4095,0.0,0.0,0.0
5.653207063674927,4095,0.0,0.0,0.0
5.669488430023193,4095,0.0,0.0,0.0
5.669488430023193,4095,0.0,0.0,0.0
5.689631700515747,4095,0.0,0.0,0.0
5.6960508823394775,4095,0.0,0.0,0.0
5.703091382980347,4095,0.0,0.0,0.0
5.720062017440796,4095,0.0,0.0,0.0
5.720062017440796,4095,0.0,0.0,0.0
5.737492084503174,4095,0.0,0.0,0.0
5.746938943862915,4095,0.0,0.0,0.0
5.752866506576538,4095,0.0,0.0,0.0
5.76952862739563,4095,0.0,0.0,0.0
5.76952862739563,4095,0.0,0.0,0.0
5.7895708084106445,4095,0.0,0.0,0.0
5.7962493896484375,4095,0.0,0.0,0.0
5.803187131881714,4095,0.0,0.0,0.0
5.819663047790527,4095,0.0,0.0,0.0
5.819663047790527,4095,0.0,0.0,0.0
5.837464809417725,4095,0.0,0.0,0.0
5.847299575805664,2059,0.0,0.0,0.0
5.853529453277588,4095,0.0,0.0,0.0
5.869606971740723,4095,0.0,0.0,0.0
5.869606971740723,4095,0.0,0.0,0.0
5.886535882949829,4095,0.0,0.0,0.0
5.896748304367065,4095,0.0,0.0,0.0
5.904938220977783,4095,0.0,0.0,0.0
5.9194324016571045,4095,0.0,0.0,0.0
5.920358419418335,4095,0.0,0.0,0.0
5.937749624252319,4095,0.0,0.0,0.0
5.946998119354248,4095,0.0,0.0,0.0
5.953036785125732,4095,0.0,0.0,0.0
5.969952344894409,4095,0.0,0.0,0.0
5.969952344894409,3930,0.0,0.0,0.0
5.986875057220459,4095,0.0,0.0,0.0
5.996489524841309,2908,0.0,0.0,0.0
6.005464792251587,4095,0.0,0.0,0.0
6.019854307174683,2538,0.0,0.0,0.0
6.020347356796265,4095,0.0,0.0,0.0
6.036994218826294,2047,0.0,0.0,0.0
6.046919584274292,4095,0.0,0.0,0.0
6.053471326828003,1643,0.0,0.0,0.0
6.069833040237427,4095,0.0,0.0,0.0
6.0705482959747314,741,0.0,0.0,0.0
6.086832284927368,4095,0.0,0.0,0.0
6.096437692642212,368,0.0,0.0,0.0
6.103132963180542,4095,0.0,0.0,0.0
6.118757963180542,0,0.0,0.0,0.0
6.122757196426392,4095,0.0,0.0,0.0
6.136712312698364,0,0.0,0.0,0.0
6.145740985870361,4095,0.0,0.0,0.0
6.153348207473755,0,0.0,0.0,0.0
6.169918775558472,4095,0.0,0.0,0.0
6.169918775558472,0,0.0,0.0,0.0
6.186890125274658,4095,0.0,0.0,0.0
6.196294546127319,357,0.0,0.0,0.0
6.203017950057983,4095,0.0,0.0,0.0
6.219881534576416,961,0.0,0.0,0.0
6.222290515899658,4095,0.0,0.0,0.0
6.2371556758880615,1331,0.0,0.0,0.0
6.246958494186401,4095,0.0,0.0,0.0
6.253251314163208,1678,0.0,0.0,0.0
6.269630432128906,4095,0.0,0.0,0.0
6.269630432128906,2084,0.0,0.0,0.0
6.2869744300842285,4095,0.0,0.0,0.0
6.296418190002441,1855,0.0,0.0,0.0
6.30324125289917,4095,0.0,0.0,0.0
6.320095777511597,2541,0.0,0.0,0.0
6.320095777511597,4095,0.0,0.0,0.0
6.339668273925781,3456,0.0,0.0,0.0
6.346652269363403,4095,0.0,0.0,0.0
6.353027582168579,4095,0.0,0.0,0.0
6.369494676589966,4095,0.0,0.0,0.0
6.369494676589966,4095,0.0,0.0,0.0
6.386603593826294,4095,0.0,0.0,0.0
6.39655327796936,4095,0.0,0.0,0.0
6.403451919555664,4095,0.0,0.0,0.0
6.419372081756592,4095,0.0,0.0,0.0
6.419372081756592,4095,0.0,0.0,0.0
6.439909219741821,4095,0.0,0.0,0.0
6.4469404220581055,4095,0.0,0.0,0.0
6.4531261920928955,4095,0.0,0.0,0.0
6.469450950622559,4095,0.0,0.0,0.0
6.469450950622559,4095,0.0,0.0,0.0
6.486892223358154,4095,0.0,0.0,0.0
6.496329069137573,4095,0.0,0.0,0.0
6.503371715545654,4095,0.0,0.0,0.0
6.5194411277771,4095,0.0,0.0,0.0
6.5194411277771,4095,0.0,0.0,0.0
6.536587953567505,4095,0.0,0.0,0.0
6.546845197677612,4095,0.0,0.0,0.0
6.5552849769592285,4095,0.0,0.0,0.0
6.569567441940308,4095,0.0,0.0,0.0
6.569567441940308,4095,0.0,0.0,0.0
6.586942195892334,4095,0.0,0.0,0.0
6.596265554428101,4095,0.0,0.0,0.0
6.602985143661499,4095,0.0,0.0,0.0
6.619953870773315,4095,0.0,0.0,0.0
6.619953870773315,4095,0.0,0.0,0.0
6.6398584842681885,4095,0.0,0.0,0.0
6.643445014953613,4095,0.0,0.0,0.0
6.657325744628906,4095,0.0,0.0,0.0
6.669840335845947,4095,0.0,0.0,0.0
6.669840335845947,4095,0.0,0.0,0.0
6.686781644821167,4095,0.0,0.0,0.0
6.696314096450806,4095,0.0,0.0,0.0
6.703181266784668,4095,0.0,0.0,0.0
6.719571828842163,4095,0.0,0.0,0.0
6.719571828842163,4095,0.0,0.0,0.0
6.737076282501221,4095,0.0,0.0,0.0
6.746652603149414,4095,0.0,0.0,0.0
6.753011465072632,4095,0.0,0.0,0.0
6.7694926261901855,4095,0.0,0.0,0.0
6.771301746368408,4095,0.0,0.0,0.0
6.786458730697632,4095,0.0,0.0,0.0
6.79653000831604,4095,0.0,0.0,0.0
6.8029258251190186,4095,0.0,0.0,0.0
6.820022106170654,4095,0.0,0.0,0.0
6.820022106170654,4095,0.0,0.0,0.0
6.836665153503418,4095,0.0,0.0,0.0
6.847096920013428,4095,0.0,0.0,0.0
6.855738878250122,4095,0.0,0.0,0.0
6.8726348876953125,4095,0.0,0.0,0.0
6.8794848918914795,4095,0.0,0.0,0.0
6.886663198471069,4095,0.0,0.0,0.0
6.896465063095093,4095,0.0,0.0,0.0
6.903413772583008,4095,0.0,0.0,0.0
6.919666767120361,4095,0.0,0.0,0.0
6.919666767120361,4095,0.0,0.0,0.0
6.936654090881348,4095,0.0,0.0,0.0
6.946827411651611,4095,0.0,0.0,0.0
6.953064441680908,4095,0.0,0.0,0.0
6.969633340835571,4095,0.0,0.0,0.0
6.969633340835571,4095,0.0,0.0,0.0
6.9886863231658936,4095,0.0,0.0,0.0
6.996164798736572,4095,0.0,0.0,0.0
7.003209114074707,4095,0.0,0.0,0.0
7.019646644592285,4095,0.0,0.0,0.0
7.019646644592285,4095,0.0,0.0,0.0
7.036722898483276,4095,0.0,0.0,0.0
7.046483516693115,4095,0.0,0.0,0.0
7.05310845375061,4095,0.0,0.0,0.0
7.06937313079834,4095,0.0,0.0,0.0
7.06937313079834,4095,0.0,0.0,0.0
7.090054035186768,4095,0.0,0.0,0.0
7.096231698989868,4095,0.0,0.0,0.0
7.103108167648315,4095,0.0,0.0,0.0
7.119487524032593,4095,0.0,0.0,0.0
7.119487524032593,4095,0.0,0.0,0.0
7.136516332626343,4095,0.0,0.0,0.0
7.147057294845581,4095,0.0,0.0,0.0
7.154865741729736,4095,0.0,0.0,0.0
7.16929817199707,4095,0.0,0.0,0.0
7.16929817199707,4095,0.0,0.0,0.0
7.186863422393799,4095,0.0,0.0,0.0
7.196141719818115,4095,0.0,0.0,0.0
7.203929662704468,4095,0.0,0.0,0.0
7.219404220581055,4095,0.0,0.0,0.0
7.219404220581055,4095,0.0,0.0,0.0
7.236461877822876,4095,0.0,0.0,0.0
7.246667146682739,4095,0.0,0.0,0.0
7.253226280212402,4095,0.0,0.0,0.0
7.26989483833313,4095,0.0,0.0,0.0
7.26989483833313,4095,0.0,0.0,0.0
7.286503314971924,4095,0.0,0.0,0.0
7.296469449996948,4095,0.0,0.0,0.0
7.305339813232422,4095,0.0,0.0,0.0
7.319425821304321,4095,0.0,0.0,0.0
7.32033371925354,4095,0.0,0.0,0.0
7.3370020389556885,4095,0.0,0.0,0.0
7.346622705459595,4095,0.0,0.0,0.0
7.352857351303101,4095,0.0,0.0,0.0
7.370038270950317,4095,0.0,0.0,0.0
7.37183403968811,4095,0.0,0.0,0.0
7.386896133422852,4095,0.0,0.0,0.0
7.396581411361694,4095,0.0,0.0,0.0
7.402828216552734,4095,0.0,0.0,0.0
7.420068979263306,4095,0.0,0.0,0.0
7.420632600784302,4095,0.0,0.0,0.0
7.436576843261719,4095,0.0,0.0,0.0
7.446134567260742,4095,0.0,0.0,0.0
7.4527411460876465,4095,0.0,0.0,0.0
7.469511032104492,4095,0.0,0.0,0.0
7.469511032104492,4095,0.0,0.0,0.0
7.486842155456543,4095,0.0,0.0,0.0
7.496317625045776,4095,0.0,0.0,0.0
7.50322151184082,4095,0.0,0.0,0.0
7.5198259353637695,4095,0.0,0.0,0.0
7.5217297077178955,4095,0.0,0.0,0.0
7.536449909210205,4095,0.0,0.0,0.0
7.546205043792725,4095,0.0,0.0,0.0
7.553118944168091,4095,0.0,0.0,0.0
7.569549322128296,4095,0.0,0.0,0.0
7.569549322128296,4095,0.0,0.0,0.0
7.586761474609375,4095,0.0,0.0,0.0
7.596561670303345,4095,0.0,0.0,0.0
7.60287070274353,4095,0.0,0.0,0.0
7.619430303573608,4095,0.0,0.0,0.0
7.619430303573608,4095,0.0,0.0,0.0
7.636466026306152,4095,0.0,0.0,0.0
7.6465349197387695,4095,0.0,0.0,0.0
7.656552791595459,4095,0.0,0.0,0.0
7.669956207275391,4095,0.0,0.0,0.0
7.669956207275391,4095,0.0,0.0,0.0
7.687408924102783,4095,0.0,0.0,0.0
7.696073293685913,4095,0.0,0.0,0.0
7.7029869556427,4095,0.0,0.0,0.0
7.71926474571228,4095,0.0,0.0,0.0
7.720113515853882,4095,0.0,0.0,0.0
7.739102125167847,4095,0.0,0.0,0.0
7.7461347579956055,4095,0.0,0.0,0.0
7.752955913543701,4095,0.0,0.0,0.0
7.769376516342163,4095,0.0,0.0,0.0
7.769376516342163,4095,0.0,0.0,0.0
7.786503791809082,4095,0.0,0.0,0.0
7.79633092880249,4095,0.0,0.0,0.0
7.803007125854492,4095,0.0,0.0,0.0
7.81963849067688,4095,0.0,0.0,0.0
7.81963849067688,4095,0.0,0.0,0.0
7.837325811386108,4095,0.0,0.0,0.0
7.846680164337158,4095,0.0,0.0,0.0
7.854407787322998,4095,0.0,0.0,0.0
7.8695478439331055,4095,0.0,0.0,0.0
7.8695478439331055,4095,0.0,0.0,0.0
7.88904595375061,4095,0.0,0.0,0.0
7.896250009536743,4095,0.0,0.0,0.0
7.903427362442017,4095,0.0,0.0,0.0
7.919630527496338,4095,0.0,0.0,0.0
7.919630527496338,4095,0.0,0.0,0.0
7.936671733856201,4095,0.0,0.0,0.0
7.946783065795898,4095,0.0,0.0,0.0
7.95475959777832,4095,0.0,0.0,0.0
7.969277381896973,4095,0.0,0.0,0.0
7.969277381896973,4095,0.0,0.0,0.0
7.986961603164673,4095,0.0,0.0,0.0
7.996445178985596,4095,0.0,0.0,0.0
8.002815961837769,4095,0.0,0.0,0.0
8.019680500030518,4095,0.0,0.0,0.0
8.019680500030518,4095,0.0,0.0,0.0
8.036325693130493,4095,0.0,0.0,0.0
8.046481847763062,4095,0.0,0.0,0.0
8.054926872253418,4095,0.0,0.0,0.0
8.069889545440674,4095,0.0,0.0,0.0
8.069889545440674,4095,0.0,0.0,0.0
8.086783409118652,4095,0.0,0.0,0.0
8.086783409118652,4095,0.0,0.0,0.0
8.107126474380493,4095,0.0,0.0,0.0
8.119287729263306,4095,0.0,0.0,0.0
8.119287729263306,4095,0.0,0.0,0.0
8.136795282363892,4095,0.0,0.0,0.0
8.146273612976074,4095,0.0,0.0,0.0
8.156590700149536,4095,0.0,0.0,0.0
8.16950011253357,4095,0.0,0.0,0.0
8.16950011253357,4095,0.0,0.0,0.0
8.187299728393555,4095,0.0,0.0,0.0
8.196295738220215,4095,0.0,0.0,0.0
8.202894687652588,4095,0.0,0.0,0.0
8.21964144706726,4095,0.0,0.0,0.0
8.21964144706726,4095,0.0,0.0,0.0
8.239944696426392,4095,0.0,0.0,0.0
8.24745225906372,4095,0.0,0.0,0.0
8.25522756576538,4095,0.0,0.0,0.0
8.269500732421875,4095,0.0,0.0,0.0
8.269500732421875,4095,0.0,0.0,0.0
8.286588907241821,4095,0.0,0.0,0.0
8.296334266662598,4095,0.0,0.0,0.0
8.302966356277466,4095,0.0,0.0,0.0
8.31926441192627,4095,0.0,0.0,0.0
8.320480823516846,4095,0.0,0.0,0.0
8.339678049087524,4095,0.0,0.0,0.0
8.339678049087524,4095,0.0,0.0,0.0
8.35743498802185,4095,0.0,0.0,0.0
8.369511365890503,4095,0.0,0.0,0.0
8.369511365890503,4095,0.0,0.0,0.0
8.38662838935852,4095,0.0,0.0,0.0
8.396539449691772,4095,0.0,0.0,0.0
8.40506887435913,4095,0.0,0.0,0.0
8.419349670410156,4095,0.0,0.0,0.0
8.419349670410156,4095,0.0,0.0,0.0
8.439342260360718,4095,0.0,0.0,0.0
8.4461669921875,4095,0.0,0.0,0.0
8.45505690574646,4095,0.0,0.0,0.0
8.469853639602661,4095,0.0,0.0,0.0
8.469853639602661,4095,0.0,0.0,0.0
8.486735582351685,4095,0.0,0.0,0.0
8.496434688568115,4095,0.0,0.0,0.0
8.502899646759033,4095,0.0,0.0,0.0
8.519445419311523,4095,0.0,0.0,0.0
8.519445419311523,4095,0.0,0.0,0.0
8.539025783538818,4095,0.0,0.0,0.0
8.546321630477905,4095,0.0,0.0,0.0
8.553051948547363,4095,0.0,0.0,0.0
8.569581270217896,4095,0.0,0.0,0.0
8.571465969085693,4095,0.0,0.0,0.0
8.586880207061768,4095,0.0,0.0,0.0
8.596486330032349,4095,0.0,0.0,0.0
8.602643251419067,4095,0.0,0.0,0.0
8.619416236877441,4095,0.0,0.0,0.0
8.619416236877441,4095,0.0,0.0,0.0
8.63903021812439,4095,0.0,0.0,0.0
8.646329641342163,4095,0.0,0.0,0.0
8.652997732162476,4095,0.0,0.0,0.0
8.669819831848145,4095,0.0,0.0,0.0
8.672131776809692,4095,0.0,0.0,0.0
8.687803745269775,4095,0.0,0.0,0.0
8.696066856384277,4095,0.0,0.0,0.0
8.70284390449524,4095,0.0,0.0,0.0
8.719327449798584,4095,0.0,0.0,0.0
8.719327449798584,4095,0.0,0.0,0.0
8.73902177810669,4095,0.0,0.0,0.0
8.746405124664307,4095,0.0,0.0,0.0
8.752988576889038,4095,0.0,0.0,0.0
8.769293785095215,4095,0.0,0.0,0.0
8.769293785095215,4095,0.0,0.0,0.0
8.788329839706421,4095,0.0,0.0,0.0
8.79627799987793,4095,0.0,0.0,0.0
8.802760362625122,3374,0.0,0.0,0.0
8.819857835769653,4095,0.0,0.0,0.0
8.819857835769653,2577,0.0,0.0,0.0
8.83898377418518,4095,0.0,0.0,0.0
8.846831560134888,1962,0.0,0.0,0.0
8.85289192199707,4095,0.0,0.0,0.0
8.86931848526001,1421,0.0,0.0,0.0
8.86931848526001,4095,0.0,0.0,0.0
8.888146162033081,1271,0.0,0.0,0.0
8.896047592163086,4095,0.0,0.0,0.0
8.90318775177002,1134,0.0,0.0,0.0
8.919621467590332,4095,0.0,0.0,0.0
8.922451734542847,977,0.0,0.0,0.0
8.938824653625488,4095,0.0,0.0,0.0
8.938824653625488,870,0.0,0.0,0.0
8.959601163864136,4095,0.0,0.0,0.0
8.968976974487305,880,0.0,0.0,0.0
8.975546598434448,4095,0.0,0.0,0.0
8.988453388214111,590,0.0,0.0,0.0
8.988453388214111,4095,0.0,0.0,0.0
9.006301641464233,277,0.0,0.0,0.0
9.019546508789062,4095,0.0,0.0,0.0
9.019546508789062,190,0.0,0.0,0.0
9.038874387741089,4095,0.0,0.0,0.0
9.046879291534424,0,0.0,0.0,0.0
9.053418636322021,4095,0.0,0.0,0.0
9.068744897842407,85,0.0,0.0,0.0
9.069720268249512,4095,0.0,0.0,0.0
9.088605403900146,122,0.0,0.0,0.0
9.091776371002197,4095,0.0,0.0,0.0
9.107091188430786,405,0.0,0.0,0.0
9.119314908981323,4095,0.0,0.0,0.0
9.119314908981323,707,0.0,0.0,0.0
9.138512372970581,4095,0.0,0.0,0.0
9.1465322971344,797,0.0,0.0,0.0
9.152987241744995,4095,0.0,0.0,0.0
9.16923999786377,1150,0.0,0.0,0.0
9.171981811523438,4095,0.0,0.0,0.0
9.1865553855896,1117,0.0,0.0,0.0
9.196069240570068,4095,0.0,0.0,0.0
9.204432487487793,976,0.0,0.0,0.0
9.219192743301392,4095,0.0,0.0,0.0
9.219192743301392,1358,0.0,0.0,0.0
9.238466739654541,4095,0.0,0.0,0.0
9.24625563621521,1494,0.0,0.0,0.0
9.25303316116333,4095,0.0,0.0,0.0
9.269428253173828,1618,0.0,0.0,0.0
9.269428253173828,4095,0.0,0.0,0.0
9.286717891693115,972,0.0,0.0,0.0
9.295538902282715,4095,0.0,0.0,0.0
9.304299354553223,701,0.0,0.0,0.0
9.3191556930542,4095,0.0,0.0,0.0
9.320129871368408,419,0.0,0.0,0.0
9.338129997253418,4095,0.0,0.0,0.0
9.346489906311035,262,0.0,0.0,0.0
9.353725671768188,4095,0.0,0.0,0.0
9.368717908859253,254,0.0,0.0,0.0
9.369901895523071,4095,0.0,0.0,0.0
9.386638641357422,194,0.0,0.0,0.0
9.386638641357422,4095,0.0,0.0,0.0
9.408109903335571,0,0.0,0.0,0.0
9.419530153274536,4095,0.0,0.0,0.0
9.419530153274536,9,0.0,0.0,0.0
9.437949895858765,4095,0.0,0.0,0.0
9.446606397628784,55,0.0,0.0,0.0
9.458593368530273,4095,0.0,0.0,0.0
9.468692064285278,490,0.0,0.0,0.0
9.4752836227417,4095,0.0,0.0,0.0
9.487077951431274,523,0.0,0.0,0.0
9.487077951431274,4095,0.0,0.0,0.0
9.50817084312439,325,0.0,0.0,0.0
9.519025087356567,4095,0.0,0.0,0.0
9.519025087356567,0,0.0,0.0,0.0
9.538004159927368,4095,0.0,0.0,0.0
9.546408414840698,0,0.0,0.0,0.0
9.553247213363647,4095,0.0,0.0,0.0
9.568695783615112,0,0.0,0.0,0.0
9.570175647735596,4095,0.0,0.0,0.0
9.586979627609253,185,0.0,0.0,0.0
9.586979627609253,4095,0.0,0.0,0.0
9.608803987503052,161,0.0,0.0,0.0
9.61964726448059,4095,0.0,0.0,0.0
9.628873586654663,122,0.0,0.0,0.0
9.640008687973022,4095,0.0,0.0,0.0
9.642701864242554,297,0.0,0.0,0.0
9.655601978302002,4095,0.0,0.0,0.0
9.669122219085693,902,0.0,0.0,0.0
9.669122219085693,4095,0.0,0.0,0.0
9.687776565551758,1584,0.0,0.0,0.0
9.696271896362305,4095,0.0,0.0,0.0
9.702662706375122,1967,0.0,0.0,0.0
9.719348907470703,4095,0.0,0.0,0.0
9.720901012420654,2189,0.0,0.0,0.0
9.737276792526245,4095,0.0,0.0,0.0
9.746224164962769,2491,0.0,0.0,0.0
9.752853393554688,4095,0.0,0.0,0.0
9.769290924072266,2729,0.0,0.0,0.0
9.769290924072266,4095,0.0,0.0,0.0
9.78663969039917,3354,0.0,0.0,0.0
9.796406507492065,4095,0.0,0.0,0.0
9.802935600280762,4095,0.0,0.0,0.0
9.819153308868408,4095,0.0,0.0,0.0
9.822640895843506,4095,0.0,0.0,0.0
9.83726954460144,4095,0.0,0.0,0.0
9.8466477394104,4095,0.0,0.0,0.0
9.85296106338501,4095,0.0,0.0,0.0
9.869682788848877,4095,0.0,0.0,0.0
9.869682788848877,4095,0.0,0.0,0.0
9.886435270309448,4095,0.0,0.0,0.0
9.896584510803223,4095,0.0,0.0,0.0
9.902961730957031,4095,0.0,0.0,0.0
9.9194176197052,4095,0.0,0.0,0.0
9.9194176197052,4095,0.0,0.0,0.0
9.936962842941284,4095,0.0,0.0,0.0
9.947128772735596,4095,0.0,0.0,0.0
9.954768419265747,4095,0.0,0.0,0.0
9.969700574874878,4095,0.0,0.0,0.0
9.969700574874878,4095,0.0,0.0,0.0
9.986963748931885,4095,0.0,0.0,0.0
9.995356321334839,4095,0.0,0.0,0.0
10.00300407409668,4095,0.0,0.0,0.0
10.019224405288696,4095,0.0,0.0,0.0
10.019224405288696,4095,0.0,0.0,0.0
10.037372589111328,4095,0.0,0.0,0.0
10.04690933227539,4095,0.0,0.0,0.0
10.053327322006226,4095,0.0,0.0,0.0
10.069902658462524,4095,0.0,0.0,0.0
10.069902658462524,4095,0.0,0.0,0.0
10.08688998222351,4095,0.0,0.0,0.0
10.08688998222351,4095,0.0,0.0,0.0
10.109105825424194,4095,0.0,0.0,0.0
10.119567632675171,4095,0.0,0.0,0.0
10.126144886016846,4095,0.0,0.0,0.0
10.136539936065674,4095,0.0,0.0,0.0
10.136539936065674,4095,0.0,0.0,0.0
10.155910968780518,4095,0.0,0.0,0.0
10.167744398117065,4095,0.0,0.0,0.0
10.16946792602539,4095,0.0,0.0,0.0
10.188613653182983,4095,0.0,0.0,0.0
10.196065902709961,4095,0.0,0.0,0.0
10.202677965164185,4095,0.0,0.0,0.0
10.219719886779785,4095,0.0,0.0,0.0
10.219719886779785,4095,0.0,0.0,0.0
10.236511468887329,4095,0.0,0.0,0.0
10.24542498588562,4095,0.0,0.0,0.0
10.254642486572266,4095,0.0,0.0,0.0
10.2686288356781,4095,0.0,0.0,0.0
10.269402265548706,4095,0.0,0.0,0.0
10.286414623260498,4095,0.0,0.0,0.0
10.29534387588501,4095,0.0,0.0,0.0
10.302655220031738,4095,0.0,0.0,0.0
10.319117307662964,4095,0.0,0.0,0.0
10.319925785064697,4095,0.0,0.0,0.0
10.337354898452759,4095,0.0,0.0,0.0
10.34552812576294,4095,0.0,0.0,0.0
10.355134963989258,4095,0.0,0.0,0.0
10.36863374710083,4095,0.0,0.0,0.0
10.36933422088623,4095,0.0,0.0,0.0
10.386526584625244,4095,0.0,0.0,0.0
10.396543502807617,4095,0.0,0.0,0.0
10.402905464172363,4095,0.0,0.0,0.0
10.419459581375122,4095,0.0,0.0,0.0
10.419459581375122,4095,0.0,0.0,0.0
10.43602204322815,4095,0.0,0.0,0.0
10.446714401245117,4095,0.0,0.0,0.0
10.455394268035889,4095,0.0,0.0,0.0
10.469652891159058,4095,0.0,0.0,0.0
10.47187066078186,4095,0.0,0.0,0.0
10.486640214920044,4095,0.0,0.0,0.0
10.495339155197144,4095,0.0,0.0,0.0
10.502880811691284,4095,0.0,0.0,0.0
10.519128322601318,4095,0.0,0.0,0.0
10.519749641418457,4095,0.0,0.0,0.0
10.53613829612732,4095,0.0,0.0,0.0
10.545469760894775,4095,0.0,0.0,0.0
10.554688215255737,4095,0.0,0.0,0.0
10.568924188613892,4095,0.0,0.0,0.0
10.568924188613892,4095,0.0,0.0,0.0
10.58756709098816,4095,0.0,0.0,0.0
10.59592342376709,4095,0.0,0.0,0.0
10.602515697479248,4095,0.0,0.0,0.0
10.619443655014038,4095,0.0,0.0,0.0
10.619443655014038,4095,0.0,0.0,0.0
10.636427164077759,4095,0.0,0.0,0.0
10.646480321884155,4095,0.0,0.0,0.0
10.656707525253296,4095,0.0,0.0,0.0
10.669066429138184,4095,0.0,0.0,0.0
10.669066429138184,4095,0.0,0.0,0.0
10.689684629440308,4095,0.0,0.0,0.0
10.696002721786499,4095,0.0,0.0,0.0
10.702839374542236,4095,0.0,0.0,0.0
10.719292163848877,4095,0.0,0.0,0.0
10.719292163848877,4095,0.0,0.0,0.0
10.736414194107056,4095,0.0,0.0,0.0
10.736414194107056,4095,0.0,0.0,0.0
10.757042646408081,4095,0.0,0.0,0.0
10.76929783821106,4095,0.0,0.0,0.0
10.771730899810791,4095,0.0,0.0,0.0
10.786624431610107,4095,0.0,0.0,0.0
10.79529595375061,4095,0.0,0.0,0.0
10.802945613861084,4095,0.0,0.0,0.0
10.819082021713257,4095,0.0,0.0,0.0
10.819229364395142,4095,0.0,0.0,0.0
10.836789608001709,4095,0.0,0.0,0.0
10.836789608001709,4095,0.0,0.0,0.0
10.85573434829712,4095,0.0,0.0,0.0
10.868565797805786,4095,0.0,0.0,0.0
10.878548622131348,4095,0.0,0.0,0.0
10.886238813400269,4095,0.0,0.0,0.0
10.896532773971558,4095,0.0,0.0,0.0
10.90328574180603,4095,0.0,0.0,0.0
10.91912031173706,4095,0.0,0.0,0.0
10.919262886047363,4095,0.0,0.0,0.0
10.93626070022583,4095,0.0,0.0,0.0
10.946698904037476,4095,0.0,0.0,0.0
10.953296661376953,4095,0.0,0.0,0.0
10.968571662902832,4095,0.0,0.0,0.0
10.969530582427979,4095,0.0,0.0,0.0
10.987954378128052,4095,0.0,0.0,0.0
10.994995355606079,4095,0.0,0.0,0.0
11.002880096435547,4095,0.0,0.0,0.0
11.019063472747803,4095,0.0,0.0,0.0
11.019635200500488,4095,0.0,0.0,0.0
11.03613567352295,4095,0.0,0.0,0.0
11.045825719833374,4095,0.0,0.0,0.0
11.052793264389038,4095,0.0,0.0,0.0
11.068584442138672,4095,0.0,0.0,0.0
11.069704294204712,4095,0.0,0.0,0.0
11.088741779327393,4095,0.0,0.0,0.0
11.088741779327393,4095,0.0,0.0,0.0
11.106659412384033,4095,0.0,0.0,0.0
11.119163751602173,4095,0.0,0.0,0.0
11.119163751602173,4095,0.0,0.0,0.0
11.136013269424438,4095,0.0,0.0,0.0
11.145569324493408,4095,0.0,0.0,0.0
11.153088331222534,4095,0.0,0.0,0.0
11.16904354095459,4095,0.0,0.0,0.0
11.16904354095459,4095,0.0,0.0,0.0
11.188835144042969,4095,0.0,0.0,0.0
11.19064474105835,4095,0.0,0.0,0.0
11.20569896697998,4095,0.0,0.0,0.0
11.219044208526611,4095,0.0,0.0,0.0
11.22014594078064,4095,0.0,0.0,0.0
11.23630142211914,4095,0.0,0.0,0.0
11.23630142211914,4095,0.0,0.0,0.0
11.255815267562866,4095,0.0,0.0,0.0
11.268481731414795,4095,0.0,0.0,0.0
11.269307136535645,4095,0.0,0.0,0.0
11.2857506275177,4095,0.0,0.0,0.0
11.295519351959229,4095,0.0,0.0,0.0
11.303386449813843,4095,0.0,0.0,0.0
11.319128036499023,4095,0.0,0.0,0.0
11.319378852844238,4095,0.0,0.0,0.0
11.336317300796509,4095,0.0,0.0,0.0
11.345661163330078,4095,0.0,0.0,0.0
11.35274338722229,4095,0.0,0.0,0.0
11.368568420410156,4095,0.0,0.0,0.0
11.369419813156128,4095,0.0,0.0,0.0
11.389002799987793,4095,0.0,0.0,0.0
11.392085075378418,4095,0.0,0.0,0.0
11.406246423721313,4095,0.0,0.0,0.0
11.419142007827759,4095,0.0,0.0,0.0
11.419496297836304,4095,0.0,0.0,0.0
11.436074256896973,4095,0.0,0.0,0.0
11.445435762405396,4095,0.0,0.0,0.0
11.452791213989258,4095,0.0,0.0,0.0
11.468555450439453,4095,0.0,0.0,0.0
11.46951699256897,4095,0.0,0.0,0.0
11.486510992050171,4095,0.0,0.0,0.0
11.495450019836426,4095,0.0,0.0,0.0
11.505129098892212,4095,0.0,0.0,0.0
11.519041776657104,4095,0.0,0.0,0.0
11.519336223602295,4095,0.0,0.0,0.0
11.535625219345093,4095,0.0,0.0,0.0
11.545586347579956,4095,0.0,0.0,0.0
11.55274224281311,4095,0.0,0.0,0.0
11.568556547164917,4095,0.0,0.0,0.0
11.569299221038818,4095,0.0,0.0,0.0
11.586262941360474,4095,0.0,0.0,0.0
11.595353126525879,4095,0.0,0.0,0.0
11.604894161224365,4095,0.0,0.0,0.0
11.619009733200073,4095,0.0,0.0,0.0
11.619397163391113,4095,0.0,0.0,0.0
11.636526823043823,4095,0.0,0.0,0.0
11.646134853363037,4095,0.0,0.0,0.0
11.652822494506836,4095,0.0,0.0,0.0
11.669058561325073,4095,0.0,0.0,0.0
11.669569253921509,4095,0.0,0.0,0.0
11.686436176300049,4095,0.0,0.0,0.0
11.696234941482544,4095,0.0,0.0,0.0
11.706366539001465,4095,0.0,0.0,0.0
11.718732833862305,4095,0.0,0.0,0.0
11.719448328018188,4095,0.0,0.0,0.0
11.7364501953125,4095,0.0,0.0,0.0
11.745388269424438,4095,0.0,0.0,0.0
11.752597093582153,4095,0.0,0.0,0.0
11.768529653549194,4095,0.0,0.0,0.0
11.769476175308228,4095,0.0,0.0,0.0
11.786341667175293,4095,0.0,0.0,0.0
11.795583009719849,4095,0.0,0.0,0.0
11.802655220031738,4095,0.0,0.0,0.0
11.81853199005127,4095,0.0,0.0,0.0
11.820713758468628,4095,0.0,0.0,0.0
11.835860252380371,4095,0.0,0.0,0.0
11.845462083816528,4095,0.0,0.0,0.0
11.852620124816895,4095,0.0,0.0,0.0
11.868539810180664,4095,0.0,0.0,0.0
11.869391918182373,4095,0.0,0.0,0.0
11.886017560958862,4095,0.0,0.0,0.0
11.895354509353638,4095,0.0,0.0,0.0
11.902716636657715,4095,0.0,0.0,0.0
11.91913390159607,4095,0.0,0.0,0.0
11.91913390159607,4095,0.0,0.0,0.0
11.93701958656311,4095,0.0,0.0,0.0
11.945448875427246,4095,0.0,0.0,0.0
11.952568054199219,4095,0.0,0.0,0.0
11.968532085418701,4095,0.0,0.0,0.0
11.969208717346191,4095,0.0,0.0,0.0
11.986681938171387,4095,0.0,0.0,0.0
11.9953134059906,4095,0.0,0.0,0.0
12.002753973007202,4095,0.0,0.0,0.0
12.019387245178223,4095,0.0,0.0,0.0
12.02129316329956,4095,0.0,0.0,0.0
12.03601336479187,4095,0.0,0.0,0.0
12.045542240142822,4095,0.0,0.0,0.0
12.052646398544312,4095,0.0,0.0,0.0
12.068547487258911,4095,0.0,0.0,0.0
12.069725751876831,4095,0.0,0.0,0.0
12.086749792098999,4095,0.0,0.0,0.0
12.086749792098999,4095,0.0,0.0,0.0
12.103225946426392,4095,0.0,0.0,0.0
12.119110107421875,4095,0.0,0.0,0.0
12.119110107421875,4095,0.0,0.0,0.0
12.136529922485352,4095,0.0,0.0,0.0
12.145233631134033,4095,0.0,0.0,0.0
12.153006315231323,3757,0.0,0.0,0.0
12.168885946273804,4095,0.0,0.0,0.0
12.168885946273804,2676,0.0,0.0,0.0
12.186285972595215,4095,0.0,0.0,0.0
12.186285972595215,1975,0.0,0.0,0.0
12.206717491149902,4095,0.0,0.0,0.0
12.219213962554932,1858,0.0,0.0,0.0
12.219213962554932,4095,0.0,0.0,0.0
12.236957788467407,1783,0.0,0.0,0.0
12.24517035484314,4095,0.0,0.0,0.0
12.25249433517456,1327,0.0,0.0,0.0
12.268523216247559,4095,0.0,0.0,0.0
12.269556760787964,1231,0.0,0.0,0.0
12.286340236663818,4095,0.0,0.0,0.0
12.286340236663818,1178,0.0,0.0,0.0
12.306090593338013,4095,0.0,0.0,0.0
12.318592548370361,1010,0.0,0.0,0.0
12.325634479522705,4095,0.0,0.0,0.0
12.338523149490356,891,0.0,0.0,0.0
12.338523149490356,4095,0.0,0.0,0.0
12.35573673248291,1456,0.0,0.0,0.0
12.368532419204712,4095,0.0,0.0,0.0
12.36942982673645,870,0.0,0.0,0.0
12.386516332626343,4095,0.0,0.0,0.0
12.395635604858398,682,0.0,0.0,0.0
12.402724981307983,4095,0.0,0.0,0.0
12.419143915176392,543,0.0,0.0,0.0
12.424673080444336,4095,0.0,0.0,0.0
12.438694953918457,385,0.0,0.0,0.0
12.44519853591919,4095,0.0,0.0,0.0
12.452567100524902,433,0.0,0.0,0.0
12.469435214996338,4095,0.0,0.0,0.0
12.469435214996338,415,0.0,0.0,0.0
12.48624873161316,4095,0.0,0.0,0.0
12.495296955108643,219,0.0,0.0,0.0
12.502880096435547,4095,0.0,0.0,0.0
12.519397974014282,0,0.0,0.0,0.0
12.524418354034424,4095,0.0,0.0,0.0
12.538303852081299,28,0.0,0.0,0.0
12.545072793960571,4095,0.0,0.0,0.0
12.552886247634888,0,0.0,0.0,0.0
12.568516492843628,4095,0.0,0.0,0.0
12.569591999053955,89,0.0,0.0,0.0
12.586552858352661,4095,0.0,0.0,0.0
12.586552858352661,477,0.0,0.0,0.0
12.606008768081665,4095,0.0,0.0,0.0
12.619097709655762,543,0.0,0.0,0.0
12.62412691116333,4095,0.0,0.0,0.0
12.638768911361694,803,0.0,0.0,0.0
12.638768911361694,4095,0.0,0.0,0.0
12.656272888183594,1104,0.0,0.0,0.0
12.669307947158813,4095,0.0,0.0,0.0
12.669307947158813,975,0.0,0.0,0.0
12.686267375946045,4095,0.0,0.0,0.0
12.695519924163818,1217,0.0,0.0,0.0
12.70461630821228,4095,0.0,0.0,0.0
12.719046354293823,1361,0.0,0.0,0.0
12.72407603263855,4095,0.0,0.0,0.0
12.736377000808716,1639,0.0,0.0,0.0
12.74530577659607,4095,0.0,0.0,0.0
12.754664182662964,1694,0.0,0.0,0.0
12.768457412719727,4095,0.0,0.0,0.0
12.769537448883057,1781,0.0,0.0,0.0
12.786522388458252,4095,0.0,0.0,0.0
12.786522388458252,1629,0.0,0.0,0.0
12.806030511856079,4095,0.0,0.0,0.0
12.818492412567139,1937,0.0,0.0,0.0
12.82408618927002,4095,0.0,0.0,0.0
12.836421728134155,1826,0.0,0.0,0.0
12.836421728134155,4095,0.0,0.0,0.0
12.856234073638916,1452,0.0,0.0,0.0
12.868510007858276,4095,0.0,0.0,0.0
12.869338512420654,1517,0.0,0.0,0.0
12.886109590530396,4095,0.0,0.0,0.0
12.895514965057373,1259,0.0,0.0,0.0
12.902958631515503,4095,0.0,0.0,0.0
12.919150352478027,965,0.0,0.0,0.0
12.9243905544281,4095,0.0,0.0,0.0
12.936472415924072,864,0.0,0.0,0.0
12.945218324661255,4095,0.0,0.0,0.0
12.95395278930664,448,0.0,0.0,0.0
12.968496084213257,4095,0.0,0.0,0.0
12.969165325164795,0,0.0,0.0,0.0
12.986327409744263,4095,0.0,0.0,0.0
12.995585680007935,0,0.0,0.0,0.0
13.002853393554688,4095,0.0,0.0,0.0
13.019147634506226,37,0.0,0.0,0.0
13.024168729782104,4095,0.0,0.0,0.0
13.036108255386353,304,0.0,0.0,0.0
13.045406103134155,4095,0.0,0.0,0.0
13.056370496749878,638,0.0,0.0,0.0
13.068477869033813,4095,0.0,0.0,0.0
13.069359302520752,575,0.0,0.0,0.0
13.086446762084961,4095,0.0,0.0,0.0
13.095489025115967,597,0.0,0.0,0.0
13.102824687957764,4095,0.0,0.0,0.0
13.118751764297485,381,0.0,0.0,0.0
13.123781681060791,4095,0.0,0.0,0.0
13.135958194732666,318,0.0,0.0,0.0
13.145891427993774,4095,0.0,0.0,0.0
13.15639877319336,0,0.0,0.0,0.0
13.168864965438843,4095,0.0,0.0,0.0
13.168864965438843,436,0.0,0.0,0.0
13.186175346374512,4095,0.0,0.0,0.0
13.19542932510376,990,0.0,0.0,0.0
13.204587459564209,4095,0.0,0.0,0.0
13.218472242355347,993,0.0,0.0,0.0
13.223854303359985,4095,0.0,0.0,0.0
13.236348628997803,1259,0.0,0.0,0.0
13.245442390441895,4095,0.0,0.0,0.0
13.252505779266357,1751,0.0,0.0,0.0
13.268457412719727,4095,0.0,0.0,0.0
13.270657777786255,2016,0.0,0.0,0.0
13.286271572113037,4095,0.0,0.0,0.0
13.286271572113037,2349,0.0,0.0,0.0
13.305724382400513,4095,0.0,0.0,0.0
13.318472862243652,3430,0.0,0.0,0.0
13.323603391647339,4095,0.0,0.0,0.0
13.336507558822632,4095,0.0,0.0,0.0
13.336507558822632,4095,0.0,0.0,0.0
13.356348276138306,4095,0.0,0.0,0.0
13.369141340255737,4095,0.0,0.0,0.0
13.37052869796753,4095,0.0,0.0,0.0
13.386476278305054,4095,0.0,0.0,0.0
13.386476278305054,4095,0.0,0.0,0.0
13.406039714813232,4095,0.0,0.0,0.0
13.419092893600464,4095,0.0,0.0,0.0
13.423621892929077,4095,0.0,0.0,0.0
13.435712337493896,4095,0.0,0.0,0.0
13.445386409759521,4095,0.0,0.0,0.0
13.452656745910645,4095,0.0,0.0,0.0
13.468512535095215,4095,0.0,0.0,0.0
13.471311330795288,4095,0.0,0.0,0.0
13.486582517623901,4095,0.0,0.0,0.0
13.495276689529419,4095,0.0,0.0,0.0
13.502808094024658,4095,0.0,0.0,0.0
13.518460988998413,4095,0.0,0.0,0.0
13.524307250976562,4095,0.0,0.0,0.0
13.536211729049683,4095,0.0,0.0,0.0
13.54537057876587,4095,0.0,0.0,0.0
13.55264163017273,4095,0.0,0.0,0.0
13.568939924240112,4095,0.0,0.0,0.0
13.570777177810669,4095,0.0,0.0,0.0
13.585854053497314,4095,0.0,0.0,0.0
13.595701217651367,4095,0.0,0.0,0.0
13.603847026824951,4095,0.0,0.0,0.0
13.618837833404541,4095,0.0,0.0,0.0
13.624368667602539,4095,0.0,0.0,0.0
13.636040687561035,4095,0.0,0.0,0.0
13.64563775062561,4095,0.0,0.0,0.0
13.65288257598877,4095,0.0,0.0,0.0
13.66906476020813,4095,0.0,0.0,0.0
13.66906476020813,4095,0.0,0.0,0.0
13.68864107131958,4095,0.0,0.0,0.0
13.694634437561035,4095,0.0,0.0,0.0
13.706541299819946,4095,0.0,0.0,0.0
13.71885633468628,4095,0.0,0.0,0.0
13.724387407302856,4095,0.0,0.0,0.0
13.736591100692749,4095,0.0,0.0,0.0
13.745540857315063,4095,0.0,0.0,0.0
13.752592325210571,4095,0.0,0.0,0.0
13.768952131271362,4095,0.0,0.0,0.0
13.768952131271362,4095,0.0,0.0,0.0
13.787560939788818,4095,0.0,0.0,0.0
13.795101165771484,4095,0.0,0.0,0.0
13.802412271499634,4095,0.0,0.0,0.0
13.818456411361694,4095,0.0,0.0,0.0
13.82427453994751,4095,0.0,0.0,0.0
13.836364030838013,4095,0.0,0.0,0.0
13.84541916847229,4095,0.0,0.0,0.0
13.852549076080322,4095,0.0,0.0,0.0
13.868453979492188,4095,0.0,0.0,0.0
13.869291067123413,4095,0.0,0.0,0.0
13.88881516456604,4095,0.0,0.0,0.0
13.895213842391968,4095,0.0,0.0,0.0
13.902619361877441,4095,0.0,0.0,0.0
13.91918420791626,4095,0.0,0.0,0.0
13.92421555519104,4095,0.0,0.0,0.0
13.935928106307983,4095,0.0,0.0,0.0
13.945256233215332,4095,0.0,0.0,0.0
13.952596664428711,4095,0.0,0.0,0.0
13.968441486358643,4095,0.0,0.0,0.0
13.969311952590942,4095,0.0,0.0,0.0
13.988850116729736,4095,0.0,0.0,0.0
13.995259284973145,4095,0.0,0.0,0.0
14.002701997756958,4095,0.0,0.0,0.0
14.018433094024658,4095,0.0,0.0,0.0
14.024595975875854,4095,0.0,0.0,0.0
14.036409139633179,4095,0.0,0.0,0.0
14.036409139633179,4095,0.0,0.0,0.0
14.056111097335815,4095,0.0,0.0,0.0
14.06922721862793,4095,0.0,0.0,0.0
14.06922721862793,4095,0.0,0.0,0.0
14.087645292282104,4095,0.0,0.0,0.0
14.095333814620972,4095,0.0,0.0,0.0
14.103652954101562,4095,0.0,0.0,0.0
14.118807077407837,4095,0.0,0.0,0.0
14.124337673187256,4095,0.0,0.0,0.0
14.13601565361023,4095,0.0,0.0,0.0
14.145527362823486,4095,0.0,0.0,0.0
14.152793169021606,4095,0.0,0.0,0.0
14.168857097625732,4095,0.0,0.0,0.0
14.168857097625732,4095,0.0,0.0,0.0
14.186100482940674,4095,0.0,0.0,0.0
14.196210384368896,4095,0.0,0.0,0.0
14.205724477767944,4095,0.0,0.0,0.0
14.218969583511353,4095,0.0,0.0,0.0
14.224742889404297,4095,0.0,0.0,0.0
14.236210346221924,4095,0.0,0.0,0.0
14.245192050933838,4095,0.0,0.0,0.0
14.252556562423706,4095,0.0,0.0,0.0
14.269254207611084,4095,0.0,0.0,0.0
14.269254207611084,4095,0.0,0.0,0.0
14.286193370819092,4095,0.0,0.0,0.0
14.295565366744995,4095,0.0,0.0,0.0
14.303942918777466,4095,0.0,0.0,0.0
14.318370819091797,4095,0.0,0.0,0.0
14.324700355529785,4095,0.0,0.0,0.0
14.336337327957153,4095,0.0,0.0,0.0
14.345559120178223,4095,0.0,0.0,0.0
14.352447986602783,4095,0.0,0.0,0.0
14.368428945541382,4095,0.0,0.0,0.0
14.369257688522339,4095,0.0,0.0,0.0
14.385594367980957,4095,0.0,0.0,0.0
14.39573359489441,4095,0.0,0.0,0.0
14.405983209609985,4095,0.0,0.0,0.0
14.419174432754517,4095,0.0,0.0,0.0
14.424716472625732,4095,0.0,0.0,0.0
14.43656849861145,4095,0.0,0.0,0.0
14.445409297943115,4095,0.0,0.0,0.0
14.452535629272461,4095,0.0,0.0,0.0
14.468478202819824,4095,0.0,0.0,0.0
14.469247817993164,4095,0.0,0.0,0.0
14.486600875854492,4095,0.0,0.0,0.0
14.495474338531494,4095,0.0,0.0,0.0
14.50268268585205,4095,0.0,0.0,0.0
14.518417596817017,4095,0.0,0.0,0.0
14.525150775909424,4095,0.0,0.0,0.0
14.536073446273804,4095,0.0,0.0,0.0
14.536073446273804,4095,0.0,0.0,0.0
14.555814504623413,4095,0.0,0.0,0.0
14.5691978931427,4095,0.0,0.0,0.0
14.5691978931427,4095,0.0,0.0,0.0
14.586406469345093,4095,0.0,0.0,0.0
14.595516443252563,4095,0.0,0.0,0.0
14.605275630950928,4095,0.0,0.0,0.0
14.618994951248169,4095,0.0,0.0,0.0
14.624821662902832,4095,0.0,0.0,0.0
14.636641263961792,4095,0.0,0.0,0.0
14.64541482925415,4095,0.0,0.0,0.0
14.65276026725769,4095,0.0,0.0,0.0
14.668939590454102,4095,0.0,0.0,0.0
14.669408321380615,4095,0.0,0.0,0.0
14.68579363822937,4095,0.0,0.0,0.0
14.69545578956604,4095,0.0,0.0,0.0
14.702678442001343,4095,0.0,0.0,0.0
14.718894481658936,4095,0.0,0.0,0.0
14.72492790222168,4095,0.0,0.0,0.0
14.736469268798828,4095,0.0,0.0,0.0
14.736469268798828,4095,0.0,0.0,0.0
14.756193399429321,4095,0.0,0.0,0.0
14.769210577011108,4095,0.0,0.0,0.0
14.769210577011108,4095,0.0,0.0,0.0
14.786171197891235,4095,0.0,0.0,0.0
14.795583963394165,4095,0.0,0.0,0.0
14.802388668060303,4095,0.0,0.0,0.0
14.819061279296875,4095,0.0,0.0,0.0
14.825188875198364,4095,0.0,0.0,0.0
14.836195945739746,4095,0.0,0.0,0.0
14.845436573028564,4095,0.0,0.0,0.0
14.852519273757935,4095,0.0,0.0,0.0
14.8690824508667,4095,0.0,0.0,0.0
14.8690824508667,4095,0.0,0.0,0.0
14.886721134185791,4095,0.0,0.0,0.0
14.898515224456787,4095,0.0,0.0,0.0
14.902958154678345,4095,0.0,0.0,0.0
14.919223308563232,4095,0.0,0.0,0.0
14.92514157295227,4095,0.0,0.0,0.0
14.936030149459839,4095,0.0,0.0,0.0
14.945329427719116,4095,0.0,0.0,0.0
14.952332019805908,4095,0.0,0.0,0.0
14.968402862548828,4095,0.0,0.0,0.0
14.977390766143799,4095,0.0,0.0,0.0
14.988112688064575,4095,0.0,0.0,0.0
14.991115808486938,4095,0.0,0.0,0.0
15.005680561065674,4095,0.0,0.0,0.0
15.019073724746704,4095,0.0,0.0,0.0
15.028807878494263,4095,0.0,0.0,0.0
15.036155462265015,4095,0.0,0.0,0.0
15.045170545578003,4095,0.0,0.0,0.0
15.052561521530151,4095,0.0,0.0,0.0
15.069309711456299,4095,0.0,0.0,0.0
15.069309711456299,4095,0.0,0.0,0.0
15.08607268333435,4095,0.0,0.0,0.0
15.08607268333435,4095,0.0,0.0,0.0
15.106019735336304,4095,0.0,0.0,0.0
15.119141817092896,4095,0.0,0.0,0.0
15.128513813018799,4095,0.0,0.0,0.0
15.136256694793701,4095,0.0,0.0,0.0
15.145336866378784,4095,0.0,0.0,0.0
15.1528902053833,4095,0.0,0.0,0.0
15.169282674789429,4095,0.0,0.0,0.0
15.169282674789429,4095,0.0,0.0,0.0
15.185621738433838,4095,0.0,0.0,0.0
15.1952223777771,4095,0.0,0.0,0.0
15.202486276626587,4095,0.0,0.0,0.0
15.218828201293945,4095,0.0,0.0,0.0
15.228280544281006,4095,0.0,0.0,0.0
15.236087799072266,4095,0.0,0.0,0.0
15.24489974975586,4095,0.0,0.0,0.0
15.252631902694702,4095,0.0,0.0,0.0
15.26928997039795,4095,0.0,0.0,0.0
15.275254249572754,4095,0.0,0.0,0.0
15.286311864852905,4095,0.0,0.0,0.0
15.296687602996826,4095,0.0,0.0,0.0
15.302502393722534,4095,0.0,0.0,0.0
15.319241523742676,4095,0.0,0.0,0.0
15.328195571899414,4095,0.0,0.0,0.0
15.33623480796814,4095,0.0,0.0,0.0
15.345436811447144,4095,0.0,0.0,0.0
15.352358341217041,4095,0.0,0.0,0.0
15.368406534194946,4095,0.0,0.0,0.0
15.369225025177002,4095,0.0,0.0,0.0
15.386282205581665,4095,0.0,0.0,0.0
15.395487308502197,4095,0.0,0.0,0.0
15.402847290039062,4095,0.0,0.0,0.0
15.419334173202515,4095,0.0,0.0,0.0
15.427916049957275,4095,0.0,0.0,0.0
15.43835997581482,4095,0.0,0.0,0.0
15.445040702819824,4095,0.0,0.0,0.0
15.45242428779602,4095,0.0,0.0,0.0
15.46909499168396,4095,0.0,0.0,0.0
15.46909499168396,4095,0.0,0.0,0.0
15.486599445343018,4095,0.0,0.0,0.0
15.495344638824463,4095,0.0,0.0,0.0
15.502588987350464,4095,0.0,0.0,0.0
15.519032716751099,4095,0.0,0.0,0.0
15.527589082717896,4095,0.0,0.0,0.0
15.538441181182861,4095,0.0,0.0,0.0
15.545053482055664,4095,0.0,0.0,0.0
15.552860498428345,4095,0.0,0.0,0.0
15.569030284881592,4095,0.0,0.0,0.0
15.569030284881592,4095,0.0,0.0,0.0
15.586249828338623,4095,0.0,0.0,0.0
15.59547758102417,4095,0.0,0.0,0.0
15.602543592453003,4095,0.0,0.0,0.0
15.619138479232788,4095,0.0,0.0,0.0
15.627223014831543,4095,0.0,0.0,0.0
15.63831639289856,4095,0.0,0.0,0.0
15.645388126373291,4095,0.0,0.0,0.0
15.653712034225464,4095,0.0,0.0,0.0
15.669087886810303,3609,0.0,0.0,0.0
15.669087886810303,4095,0.0,0.0,0.0
15.68604040145874,3351,0.0,0.0,0.0
15.695656299591064,4095,0.0,0.0,0.0
15.702640533447266,2102,0.0,0.0,0.0
15.718376874923706,4095,0.0,0.0,0.0
15.727199792861938,1509,0.0,0.0,0.0
15.736379384994507,4095,0.0,0.0,0.0
15.745467901229858,1616,0.0,0.0,0.0
15.75473666191101,4095,0.0,0.0,0.0
15.769144773483276,795,0.0,0.0,0.0
15.769144773483276,4095,0.0,0.0,0.0
15.786007404327393,719,0.0,0.0,0.0
15.795957088470459,4095,0.0,0.0,0.0
15.802407503128052,633,0.0,0.0,0.0
15.818306922912598,4095,0.0,0.0,0.0
15.827297449111938,592,0.0,0.0,0.0
15.836076498031616,4095,0.0,0.0,0.0
15.836076498031616,320,0.0,0.0,0.0
15.856878519058228,4095,0.0,0.0,0.0
15.869119644165039,625,0.0,0.0,0.0
15.869119644165039,4095,0.0,0.0,0.0
15.886025190353394,442,0.0,0.0,0.0
15.895716667175293,4095,0.0,0.0,0.0
15.902954816818237,34,0.0,0.0,0.0
15.919105291366577,4095,0.0,0.0,0.0
15.927172660827637,92,0.0,0.0,0.0
15.935944080352783,4095,0.0,0.0,0.0
15.945374011993408,17,0.0,0.0,0.0
15.95264983177185,4095,0.0,0.0,0.0
15.969408750534058,0,0.0,0.0,0.0
15.969927310943604,4095,0.0,0.0,0.0
15.986001014709473,0,0.0,0.0,0.0
15.995378255844116,4095,0.0,0.0,0.0
16.002612829208374,0,0.0,0.0,0.0
16.018341302871704,4095,0.0,0.0,0.0
16.027268886566162,0,0.0,0.0,0.0
16.03620457649231,4095,0.0,0.0,0.0
16.045389413833618,0,0.0,0.0,0.0
16.052650213241577,4095,0.0,0.0,0.0
16.068339824676514,112,0.0,0.0,0.0
16.070591688156128,4095,0.0,0.0,0.0
16.08572506904602,559,0.0,0.0,0.0
16.095805883407593,4095,0.0,0.0,0.0
16.102932691574097,810,0.0,0.0,0.0
16.11908769607544,4095,0.0,0.0,0.0
16.12716841697693,848,0.0,0.0,0.0
16.135845184326172,4095,0.0,0.0,0.0
16.14562702178955,1102,0.0,0.0,0.0
16.154447555541992,4095,0.0,0.0,0.0
16.168713808059692,1392,0.0,0.0,0.0
16.170862674713135,4095,0.0,0.0,0.0
16.18657159805298,1367,0.0,0.0,0.0
16.195589303970337,4095,0.0,0.0,0.0
16.20256495475769,1586,0.0,0.0,0.0
16.218834161758423,4095,0.0,0.0,0.0
16.22705316543579,1744,0.0,0.0,0.0
16.236194133758545,4095,0.0,0.0,0.0
16.236194133758545,1691,0.0,0.0,0.0
16.25597834587097,4095,0.0,0.0,0.0
16.269108772277832,1831,0.0,0.0,0.0
16.271374940872192,4095,0.0,0.0,0.0
16.286144495010376,1867,0.0,0.0,0.0
16.295621633529663,4095,0.0,0.0,0.0
16.30244207382202,1986,0.0,0.0,0.0
16.31825828552246,4095,0.0,0.0,0.0
16.327138900756836,1998,0.0,0.0,0.0
16.336057424545288,4095,0.0,0.0,0.0
16.336057424545288,1990,0.0,0.0,0.0
16.356159210205078,4095,0.0,0.0,0.0
16.368886470794678,1903,0.0,0.0,0.0
16.368886470794678,4095,0.0,0.0,0.0
16.386800289154053,1725,0.0,0.0,0.0
16.39521312713623,4095,0.0,0.0,0.0
16.40271306037903,1898,0.0,0.0,0.0
16.418963193893433,4095,0.0,0.0,0.0
16.427205085754395,1705,0.0,0.0,0.0
16.435975313186646,4095,0.0,0.0,0.0
16.44563364982605,1522,0.0,0.0,0.0
16.45255732536316,4095,0.0,0.0,0.0
16.468340635299683,1387,0.0,0.0,0.0
16.470213174819946,4095,0.0,0.0,0.0
16.488860845565796,1232,0.0,0.0,0.0
16.48937702178955,4095,0.0,0.0,0.0
16.506308555603027,960,0.0,0.0,0.0
16.519269466400146,4095,0.0,0.0,0.0
16.52682614326477,741,0.0,0.0,0.0
16.535792589187622,4095,0.0,0.0,0.0
16.54542875289917,464,0.0,0.0,0.0
16.552725553512573,4095,0.0,0.0,0.0
16.569047927856445,94,0.0,0.0,0.0
16.569047927856445,4095,0.0,0.0,0.0
16.58861494064331,0,0.0,0.0,0.0
16.595196962356567,4095,0.0,0.0,0.0
16.60244917869568,0,0.0,0.0,0.0
16.619128942489624,4095,0.0,0.0,0.0
16.626628160476685,0,0.0,0.0,0.0
16.63589572906494,4095,0.0,0.0,0.0
16.6452693939209,0,0.0,0.0,0.0
16.65266442298889,4095,0.0,0.0,0.0
16.669141054153442,0,0.0,0.0,0.0
16.67048192024231,4095,0.0,0.0,0.0
16.685818672180176,0,0.0,0.0,0.0
16.695048809051514,4095,0.0,0.0,0.0
16.704168558120728,493,0.0,0.0,0.0
16.718693017959595,4095,0.0,0.0,0.0
16.72657608985901,1203,0.0,0.0,0.0
16.736064910888672,4095,0.0,0.0,0.0
16.74540638923645,1281,0.0,0.0,0.0
16.752963066101074,4095,0.0,0.0,0.0
16.76868724822998,1658,0.0,0.0,0.0
16.76868724822998,4095,0.0,0.0,0.0
16.785765886306763,1875,0.0,0.0,0.0
16.79554557800293,4095,0.0,0.0,0.0
16.803733110427856,1909,0.0,0.0,0.0
16.818724870681763,4095,0.0,0.0,0.0
16.826305866241455,2646,0.0,0.0,0.0
16.836090087890625,4095,0.0,0.0,0.0
16.845555782318115,3423,0.0,0.0,0.0
16.852505683898926,4095,0.0,0.0,0.0
16.86826992034912,4095,0.0,0.0,0.0
16.869235277175903,4095,0.0,0.0,0.0
16.886423110961914,4095,0.0,0.0,0.0
16.895861387252808,4095,0.0,0.0,0.0
16.90479874610901,4095,0.0,0.0,0.0
16.91904902458191,4095,0.0,0.0,0.0
16.926125288009644,4095,0.0,0.0,0.0
16.936187982559204,4095,0.0,0.0,0.0
16.945207595825195,4095,0.0,0.0,0.0
16.952467679977417,4095,0.0,0.0,0.0
16.969064950942993,4095,0.0,0.0,0.0
16.969064950942993,4095,0.0,0.0,0.0
16.98605442047119,4095,0.0,0.0,0.0
16.995402336120605,4095,0.0,0.0,0.0
17.00397491455078,4095,0.0,0.0,0.0
17.018937587738037,4095,0.0,0.0,0.0
17.02597165107727,4095,0.0,0.0,0.0
17.03633999824524,4095,0.0,0.0,0.0
17.04575777053833,4095,0.0,0.0,0.0
17.05275845527649,4095,0.0,0.0,0.0
17.069101810455322,4095,0.0,0.0,0.0
17.069101810455322,4095,0.0,0.0,0.0
17.086461544036865,4095,0.0,0.0,0.0
17.086461544036865,4095,0.0,0.0,0.0
17.10653281211853,4095,0.0,0.0,0.0
17.119018077850342,4095,0.0,0.0,0.0
17.125553607940674,4095,0.0,0.0,0.0
17.135749578475952,4095,0.0,0.0,0.0
17.145436763763428,4095,0.0,0.0,0.0
17.152820825576782,4095,0.0,0.0,0.0
17.169170379638672,4095,0.0,0.0,0.0
17.169170379638672,4095,0.0,0.0,0.0
17.187031269073486,4095,0.0,0.0,0.0
17.195262670516968,4095,0.0,0.0,0.0
17.204273462295532,4095,0.0,0.0,0.0
17.21829342842102,4095,0.0,0.0,0.0
17.225301504135132,4095,0.0,0.0,0.0
17.236552476882935,4095,0.0,0.0,0.0
17.245392084121704,4095,0.0,0.0,0.0
17.252595901489258,4095,0.0,0.0,0.0
17.26911187171936,4095,0.0,0.0,0.0
17.26911187171936,4095,0.0,0.0,0.0
17.286171197891235,4095,0.0,0.0,0.0
17.29563069343567,4095,0.0,0.0,0.0
17.304628372192383,4095,0.0,0.0,0.0
17.31895875930786,4095,0.0,0.0,0.0
17.32499670982361,4095,0.0,0.0,0.0
17.33617329597473,4095,0.0,0.0,0.0
17.345393657684326,4095,0.0,0.0,0.0
17.35228657722473,4095,0.0,0.0,0.0
17.368887186050415,4095,0.0,0.0,0.0
17.368887186050415,4095,0.0,0.0,0.0
17.38618493080139,4095,0.0,0.0,0.0
17.395991563796997,4095,0.0,0.0,0.0
17.404197454452515,4095,0.0,0.0,0.0
17.418909072875977,4095,0.0,0.0,0.0
17.42497491836548,4095,0.0,0.0,0.0
17.43577289581299,4095,0.0,0.0,0.0
17.445390701293945,4095,0.0,0.0,0.0
17.452667951583862,4095,0.0,0.0,0.0
17.469027280807495,4095,0.0,0.0,0.0
17.469027280807495,4095,0.0,0.0,0.0
17.485984563827515,4095,0.0,0.0,0.0
17.49543070793152,4095,0.0,0.0,0.0
17.504618644714355,4095,0.0,0.0,0.0
17.51905608177185,4095,0.0,0.0,0.0
17.524576425552368,4095,0.0,0.0,0.0
17.535856246948242,4095,0.0,0.0,0.0
17.545536518096924,4095,0.0,0.0,0.0
17.552491188049316,4095,0.0,0.0,0.0
17.56828808784485,4095,0.0,0.0,0.0
17.569162845611572,4095,0.0,0.0,0.0
17.586365461349487,4095,0.0,0.0,0.0
17.595423460006714,4095,0.0,0.0,0.0
17.602495670318604,4095,0.0,0.0,0.0
17.619179010391235,4095,0.0,0.0,0.0
17.62430238723755,4095,0.0,0.0,0.0
17.63607883453369,4095,0.0,0.0,0.0
17.64560580253601,4095,0.0,0.0,0.0
17.652600288391113,4095,0.0,0.0,0.0
17.669023513793945,4095,0.0,0.0,0.0
17.669023513793945,4095,0.0,0.0,0.0
17.685896635055542,4095,0.0,0.0,0.0
17.695786952972412,4095,0.0,0.0,0.0
17.7044734954834,4095,0.0,0.0,0.0
17.718735933303833,4095,0.0,0.0,0.0
17.72423505783081,4095,0.0,0.0,0.0
17.736393690109253,4095,0.0,0.0,0.0
17.74563717842102,4095,0.0,0.0,0.0
17.75255012512207,4095,0.0,0.0,0.0
17.76904797554016,4095,0.0,0.0,0.0
17.76904797554016,4095,0.0,0.0,0.0
17.7886860370636,4095,0.0,0.0,0.0
17.79561424255371,4095,0.0,0.0,0.0
17.802518129348755,4095,0.0,0.0,0.0
17.818424224853516,4095,0.0,0.0,0.0
17.82391333580017,4095,0.0,0.0,0.0
17.836345195770264,4095,0.0,0.0,0.0
17.84554362297058,4095,0.0,0.0,0.0
17.852405548095703,4095,0.0,0.0,0.0
17.868788957595825,4095,0.0,0.0,0.0
17.868788957595825,4095,0.0,0.0,0.0
17.886078119277954,4095,0.0,0.0,0.0
17.89558744430542,4095,0.0,0.0,0.0
17.90268898010254,4095,0.0,0.0,0.0
17.91865825653076,4095,0.0,0.0,0.0
17.923738718032837,4095,0.0,0.0,0.0
17.93568754196167,4095,0.0,0.0,0.0
17.945435047149658,4095,0.0,0.0,0.0
17.95234704017639,4095,0.0,0.0,0.0
17.9688503742218,4095,0.0,0.0,0.0
17.9688503742218,4095,0.0,0.0,0.0
17.985783100128174,4095,0.0,0.0,0.0
17.995330572128296,4095,0.0,0.0,0.0
18.00243902206421,4095,0.0,0.0,0.0
18.019042491912842,4095,0.0,0.0,0.0
18.023576259613037,4095,0.0,0.0,0.0
18.037033557891846,4095,0.0,0.0,0.0
18.045180082321167,4095,0.0,0.0,0.0
18.052315950393677,4095,0.0,0.0,0.0
18.06827163696289,4095,0.0,0.0,0.0
18.069264888763428,4095,0.0,0.0,0.0
18.08617877960205,4095,0.0,0.0,0.0
18.09552812576294,4095,0.0,0.0,0.0
18.10246181488037,4095,0.0,0.0,0.0
18.1189067363739,4095,0.0,0.0,0.0
18.12346363067627,4095,0.0,0.0,0.0
18.137761116027832,4095,0.0,0.0,0.0
18.145134687423706,4095,0.0,0.0,0.0
18.152420043945312,4095,0.0,0.0,0.0
18.16909170150757,4095,0.0,0.0,0.0
18.16909170150757,4095,0.0,0.0,0.0
18.18564200401306,4095,0.0,0.0,0.0
18.19536542892456,4095,0.0,0.0,0.0
18.20247721672058,4095,0.0,0.0,0.0
18.219166040420532,4095,0.0,0.0,0.0
18.223363399505615,4095,0.0,0.0,0.0
18.23857045173645,4095,0.0,0.0,0.0
18.245057821273804,4095,0.0,0.0,0.0
18.252626419067383,4095,0.0,0.0,0.0
18.26892924308777,4095,0.0,0.0,0.0
18.26892924308777,4095,0.0,0.0,0.0
18.286309480667114,4095,0.0,0.0,0.0
18.295608520507812,4095,0.0,0.0,0.0
18.30258584022522,4095,0.0,0.0,0.0
18.319061517715454,4095,0.0,0.0,0.0
18.323105812072754,4095,0.0,0.0,0.0
18.338805198669434,4095,0.0,0.0,0.0
18.345153093338013,4095,0.0,0.0,0.0
18.352373838424683,4095,0.0,0.0,0.0
18.368889093399048,4095,0.0,0.0,0.0
18.368889093399048,4095,0.0,0.0,0.0
18.386035680770874,4095,0.0,0.0,0.0
18.39563798904419,4095,0.0,0.0,0.0
18.402263879776,4095,0.0,0.0,0.0
18.41889500617981,4095,0.0,0.0,0.0
18.422929525375366,4095,0.0,0.0,0.0
18.438549518585205,4095,0.0,0.0,0.0
18.44517683982849,4095,0.0,0.0,0.0
18.452277183532715,4095,0.0,0.0,0.0
18.469072818756104,4095,0.0,0.0,0.0
18.469072818756104,4095,0.0,0.0,0.0
18.486437559127808,4095,0.0,0.0,0.0
18.486437559127808,4095,0.0,0.0,0.0
18.50609016418457,4095,0.0,0.0,0.0
18.519212245941162,4095,0.0,0.0,0.0
18.522784948349,4095,0.0,0.0,0.0
18.538683891296387,4095,0.0,0.0,0.0
18.54523253440857,4095,0.0,0.0,0.0
18.55234169960022,4095,0.0,0.0,0.0
18.569166898727417,4095,0.0,0.0,0.0
18.569166898727417,4095,0.0,0.0,0.0
18.58571171760559,4095,0.0,0.0,0.0
18.59541654586792,4095,0.0,0.0,0.0
18.602712154388428,4095,0.0,0.0,0.0
18.618873596191406,4095,0.0,0.0,0.0
18.622918128967285,4095,0.0,0.0,0.0
18.63593578338623,4095,0.0,0.0,0.0
18.64554762840271,4095,0.0,0.0,0.0
18.656623125076294,4095,0.0,0.0,0.0
18.669062852859497,4095,0.0,0.0,0.0
18.669062852859497,4095,0.0,0.0,0.0
18.685787200927734,4095,0.0,0.0,0.0
18.69568419456482,4095,0.0,0.0,0.0
18.702463388442993,4095,0.0,0.0,0.0
18.718759059906006,4095,0.0,0.0,0.0
18.72280526161194,4095,0.0,0.0,0.0
18.738094806671143,4095,0.0,0.0,0.0
18.745193004608154,4095,0.0,0.0,0.0
18.753880500793457,4095,0.0,0.0,0.0
18.7686824798584,4095,0.0,0.0,0.0
18.7686824798584,4095,0.0,0.0,0.0
18.786144971847534,4095,0.0,0.0,0.0
18.795433044433594,4095,0.0,0.0,0.0
18.802515268325806,4095,0.0,0.0,0.0
18.818222284317017,4095,0.0,0.0,0.0
18.82317352294922,4095,0.0,0.0,0.0
18.836097717285156,4095,0.0,0.0,0.0
18.836097717285156,4095,0.0,0.0,0.0
18.856292009353638,4095,0.0,0.0,0.0
18.868845224380493,4095,0.0,0.0,0.0
18.868845224380493,4095,0.0,0.0,0.0
18.88578200340271,4095,0.0,0.0,0.0
18.895490646362305,4095,0.0,0.0,0.0
18.902164459228516,4095,0.0,0.0,0.0
18.919033527374268,4095,0.0,0.0,0.0
18.923077821731567,4095,0.0,0.0,0.0
18.93567180633545,4095,0.0,0.0,0.0
18.94557523727417,4095,0.0,0.0,0.0
18.954502820968628,4095,0.0,0.0,0.0
18.968825817108154,4095,0.0,0.0,0.0
18.968825817108154,4095,0.0,0.0,0.0
18.98632287979126,4095,0.0,0.0,0.0
18.9954936504364,4095,0.0,0.0,0.0
19.002384901046753,4095,0.0,0.0,0.0
19.01875400543213,4095,0.0,0.0,0.0
19.022854804992676,4095,0.0,0.0,0.0
19.03626298904419,4095,0.0,0.0,0.0
19.045647144317627,4095,0.0,0.0,0.0
19.05233883857727,4095,0.0,0.0,0.0
19.06926155090332,4095,0.0,0.0,0.0
19.07035732269287,4095,0.0,0.0,0.0
19.086186408996582,4095,0.0,0.0,0.0
19.095649003982544,4095,0.0,0.0,0.0
19.102323532104492,4095,0.0,0.0,0.0
19.118947982788086,4095,0.0,0.0,0.0
19.123003721237183,4095,0.0,0.0,0.0
19.138644695281982,4095,0.0,0.0,0.0
19.148711681365967,4095,0.0,0.0,0.0
19.158331871032715,4095,0.0,0.0,0.0
19.169097423553467,4095,0.0,0.0,0.0
19.176288843154907,4095,0.0,0.0,0.0
19.18605899810791,4095,0.0,0.0,0.0
19.18605899810791,4095,0.0,0.0,0.0
19.205744981765747,4095,0.0,0.0,0.0
19.21907949447632,4095,0.0,0.0,0.0
19.22262191772461,4095,0.0,0.0,0.0
19.237600803375244,4095,0.0,0.0,0.0
19.245351314544678,4095,0.0,0.0,0.0
19.256246328353882,4095,0.0,0.0,0.0
19.26875400543213,4095,0.0,0.0,0.0
19.26875400543213,4084,0.0,0.0,0.0
19.28851556777954,4095,0.0,0.0,0.0
19.295127630233765,3204,0.0,0.0,0.0
19.30259132385254,4095,0.0,0.0,0.0
19.31862998008728,2879,0.0,0.0,0.0
19.322673559188843,4095,0.0,0.0,0.0
19.33592176437378,2983,0.0,0.0,0.0
19.34530258178711,4095,0.0,0.0,0.0
19.352281093597412,2854,0.0,0.0,0.0
19.368796348571777,4095,0.0,0.0,0.0
19.368796348571777,2640,0.0,0.0,0.0
19.38910222053528,4095,0.0,0.0,0.0
19.395121097564697,2738,0.0,0.0,0.0
19.40219283103943,4095,0.0,0.0,0.0
19.4190731048584,2359,0.0,0.0,0.0
19.423110485076904,4095,0.0,0.0,0.0
19.435837268829346,2320,0.0,0.0,0.0
19.44514799118042,4095,0.0,0.0,0.0
19.45220398902893,2099,0.0,0.0,0.0
19.469088554382324,4095,0.0,0.0,0.0
19.469088554382324,1843,0.0,0.0,0.0
19.48617935180664,4095,0.0,0.0,0.0
19.48617935180664,1642,0.0,0.0,0.0
19.50558829307556,4095,0.0,0.0,0.0
19.518884897232056,1499,0.0,0.0,0.0
19.52322793006897,4095,0.0,0.0,0.0
19.536351442337036,1569,0.0,0.0,0.0
19.545199632644653,4095,0.0,0.0,0.0
19.552377700805664,984,0.0,0.0,0.0
19.568935871124268,4095,0.0,0.0,0.0
19.568935871124268,900,0.0,0.0,0.0
19.585761308670044,4095,0.0,0.0,0.0
19.59586524963379,555,0.0,0.0,0.0
19.60444164276123,4095,0.0,0.0,0.0
19.618905782699585,218,0.0,0.0,0.0
19.623473167419434,4095,0.0,0.0,0.0
19.63674259185791,84,0.0,0.0,0.0
19.645321130752563,4095,0.0,0.0,0.0
19.652453899383545,0,0.0,0.0,0.0
19.66900944709778,4095,0.0,0.0,0.0
19.66900944709778,0,0.0,0.0,0.0
19.688926458358765,4095,0.0,0.0,0.0
19.695316791534424,11,0.0,0.0,0.0
19.704806327819824,4095,0.0,0.0,0.0
19.719072341918945,79,0.0,0.0,0.0
19.723103046417236,4095,0.0,0.0,0.0
19.73863124847412,204,0.0,0.0,0.0
19.74650239944458,4095,0.0,0.0,0.0
19.754914045333862,240,0.0,0.0,0.0
19.769023895263672,4095,0.0,0.0,0.0
19.77562952041626,199,0.0,0.0,0.0
19.78624200820923,4095,0.0,0.0,0.0
19.79577660560608,351,0.0,0.0,0.0
19.804999589920044,4095,0.0,0.0,0.0
19.81905460357666,286,0.0,0.0,0.0
19.8231143951416,4095,0.0,0.0,0.0
19.836471796035767,283,0.0,0.0,0.0
19.842056274414062,4095,0.0,0.0,0.0
19.852907419204712,327,0.0,0.0,0.0
19.86882257461548,4095,0.0,0.0,0.0
19.873407125473022,386,0.0,0.0,0.0
19.88646626472473,4095,0.0,0.0,0.0
19.89406156539917,364,0.0,0.0,0.0
19.90759515762329,4095,0.0,0.0,0.0
19.91868758201599,215,0.0,0.0,0.0
19.924734354019165,4095,0.0,0.0,0.0
19.93624711036682,88,0.0,0.0,0.0
19.945979833602905,4095,0.0,0.0,0.0
19.955843687057495,24,0.0,0.0,0.0
19.96905779838562,4095,0.0,0.0,0.0
19.976651668548584,0,0.0,0.0,0.0
19.98670196533203,4095,0.0,0.0,0.0
19.99713659286499,0,0.0,0.0,0.0
20.007449865341187,4095,0.0,0.0,0.0
20.018729209899902,0,0.0,0.0,0.0
20.028380393981934,4095,0.0,0.0,0.0
20.038825511932373,0,0.0,0.0,0.0
20.045166730880737,4095,0.0,0.0,0.0
20.05259895324707,4,0.0,0.0,0.0
20.069106101989746,4095,0.0,0.0,0.0
20.070629596710205,64,0.0,0.0,0.0
20.085489988327026,4095,0.0,0.0,0.0
20.09611201286316,368,0.0,0.0,0.0
20.10260510444641,4095,0.0,0.0,0.0
20.118839263916016,595,0.0,0.0,0.0
20.123528957366943,4095,0.0,0.0,0.0
20.13588523864746,670,0.0,0.0,0.0
20.14558720588684,4095,0.0,0.0,0.0
20.1524875164032,727,0.0,0.0,0.0
20.16893243789673,4095,0.0,0.0,0.0
20.173439025878906,1179,0.0,0.0,0.0
20.185479164123535,4095,0.0,0.0,0.0
20.195488929748535,1811,0.0,0.0,0.0
20.202559232711792,4095,0.0,0.0,0.0
20.218852281570435,2278,0.0,0.0,0.0
20.22333550453186,4095,0.0,0.0,0.0
20.235986709594727,2630,0.0,0.0,0.0
20.24545192718506,4095,0.0,0.0,0.0
20.25450110435486,2608,0.0,0.0,0.0
20.268929481506348,4095,0.0,0.0,0.0
20.268929481506348,2971,0.0,0.0,0.0
20.288232564926147,4095,0.0,0.0,0.0
20.29547357559204,3329,0.0,0.0,0.0
20.302565813064575,4095,0.0,0.0,0.0
20.31865954399109,3756,0.0,0.0,0.0
20.323119401931763,4095,0.0,0.0,0.0
20.33585786819458,4095,0.0,0.0,0.0
20.34559679031372,4095,0.0,0.0,0.0
20.35275173187256,4095,0.0,0.0,0.0
20.36882185935974,4095,0.0,0.0,0.0
20.36882185935974,4095,0.0,0.0,0.0
20.386229991912842,4095,0.0,0.0,0.0
20.39517331123352,4095,0.0,0.0,0.0
20.40225076675415,4095,0.0,0.0,0.0
20.419042110443115,4095,0.0,0.0,0.0
20.42304825782776,4095,0.0,0.0,0.0
20.43664574623108,4095,0.0,0.0,0.0
20.44508385658264,4095,0.0,0.0,0.0
20.452290773391724,4095,0.0,0.0,0.0
20.469123601913452,4095,0.0,0.0,0.0
20.469123601913452,4095,0.0,0.0,0.0
20.48574185371399,4095,0.0,0.0,0.0
20.495578050613403,4095,0.0,0.0,0.0
20.508968353271484,4095,0.0,0.0,0.0
20.518889904022217,4095,0.0,0.0,0.0
20.52582859992981,4095,0.0,0.0,0.0
20.53836226463318,4095,0.0,0.0,0.0
20.53836226463318,4095,0.0,0.0,0.0
20.555786848068237,4095,0.0,0.0,0.0
20.568870544433594,4095,0.0,0.0,0.0
20.568870544433594,4095,0.0,0.0,0.0
20.58585834503174,4095,0.0,0.0,0.0
20.59542965888977,4095,0.0,0.0,0.0
20.60230302810669,4095,0.0,0.0,0.0
20.61887264251709,4095,0.0,0.0,0.0
20.62373161315918,4095,0.0,0.0,0.0
20.638678550720215,4095,0.0,0.0,0.0
20.645325422286987,4095,0.0,0.0,0.0
20.65235137939453,4095,0.0,0.0,0.0
20.6688015460968,4095,0.0,0.0,0.0
20.6688015460968,4095,0.0,0.0,0.0
20.685730934143066,4095,0.0,0.0,0.0
20.69573998451233,4095,0.0,0.0,0.0
20.702251434326172,4095,0.0,0.0,0.0
20.7191424369812,4095,0.0,0.0,0.0
20.72367286682129,4095,0.0,0.0,0.0
20.73557949066162,4095,0.0,0.0,0.0
20.745792865753174,4095,0.0,0.0,0.0
20.755692958831787,4095,0.0,0.0,0.0
20.768666982650757,4095,0.0,0.0,0.0
20.76918363571167,4095,0.0,0.0,0.0
20.785924673080444,4095,0.0,0.0,0.0
20.79560899734497,4095,0.0,0.0,0.0
20.804380178451538,4095,0.0,0.0,0.0
20.818625450134277,4095,0.0,0.0,0.0
20.82363748550415,4095,0.0,0.0,0.0
20.836065769195557,4095,0.0,0.0,0.0
20.84522557258606,4095,0.0,0.0,0.0
20.853708505630493,4095,0.0,0.0,0.0
20.868594884872437,4095,0.0,0.0,0.0
20.868594884872437,4095,0.0,0.0,0.0
20.886364936828613,4095,0.0,0.0,0.0
20.89552092552185,4095,0.0,0.0,0.0
20.902286052703857,4095,0.0,0.0,0.0
20.918770790100098,4095,0.0,0.0,0.0
20.923279285430908,4095,0.0,0.0,0.0
20.935500383377075,4095,0.0,0.0,0.0
20.945874452590942,4095,0.0,0.0,0.0
20.956156253814697,4095,0.0,0.0,0.0
20.968173027038574,4095,0.0,0.0,0.0
20.978596210479736,4095,0.0,0.0,0.0
20.98876118659973,4095,0.0,0.0,0.0
20.992666959762573,4095,0.0,0.0,0.0
21.005398988723755,4095,0.0,0.0,0.0
21.01853370666504,4095,0.0,0.0,0.0
21.023377656936646,4095,0.0,0.0,0.0
21.035945653915405,4095,0.0,0.0,0.0
21.045438766479492,4095,0.0,0.0,0.0
21.052279710769653,4095,0.0,0.0,0.0
21.06583571434021,4095,0.0,0.0,0.0
21.074345588684082,4095,0.0,0.0,0.0
21.085479974746704,4095,0.0,0.0,0.0
21.09636116027832,4095,0.0,0.0,0.0
21.102532148361206,4095,0.0,0.0,0.0
21.11897611618042,4095,0.0,0.0,0.0
21.123518705368042,4095,0.0,0.0,0.0
21.135966062545776,4095,0.0,0.0,0.0
21.145323514938354,4095,0.0,0.0,0.0
21.158353567123413,4095,0.0,0.0,0.0
21.168680906295776,4095,0.0,0.0,0.0
21.175884008407593,4095,0.0,0.0,0.0
21.188826322555542,4095,0.0,0.0,0.0
21.188826322555542,4095,0.0,0.0,0.0
21.205581665039062,4095,0.0,0.0,0.0
21.21892261505127,4095,0.0,0.0,0.0
21.22401785850525,4095,0.0,0.0,0.0
21.23865270614624,4095,0.0,0.0,0.0
21.24560236930847,4095,0.0,0.0,0.0
21.25228214263916,4095,0.0,0.0,0.0
21.268908977508545,4095,0.0,0.0,0.0
21.27034306526184,4095,0.0,0.0,0.0
21.288207530975342,4095,0.0,0.0,0.0
21.295085906982422,4095,0.0,0.0,0.0
21.302618741989136,4095,0.0,0.0,0.0
21.318907737731934,4095,0.0,0.0,0.0
21.32391357421875,4095,0.0,0.0,0.0
21.33568000793457,4095,0.0,0.0,0.0
21.33568000793457,4095,0.0,0.0,0.0
21.355804920196533,4095,0.0,0.0,0.0
21.368804454803467,4095,0.0,0.0,0.0
21.368804454803467,4095,0.0,0.0,0.0
21.38596820831299,4095,0.0,0.0,0.0
21.395435094833374,4095,0.0,0.0,0.0
21.40898823738098,4095,0.0,0.0,0.0
21.419092416763306,4095,0.0,0.0,0.0
21.423863649368286,4095,0.0,0.0,0.0
21.435978174209595,4095,0.0,0.0,0.0
21.445878505706787,4095,0.0,0.0,0.0
21.45223617553711,4095,0.0,0.0,0.0
21.46889042854309,4095,0.0,0.0,0.0
21.46889042854309,4095,0.0,0.0,0.0
21.488585948944092,4095,0.0,0.0,0.0
21.494577884674072,4095,0.0,0.0,0.0
21.50564932823181,4095,0.0,0.0,0.0
21.518420219421387,4095,0.0,0.0,0.0
21.52452063560486,4095,0.0,0.0,0.0
21.535768270492554,4095,0.0,0.0,0.0
21.545600175857544,4095,0.0,0.0,0.0
21.552292585372925,4095,0.0,0.0,0.0
21.56562614440918,4095,0.0,0.0,0.0
21.57295274734497,4095,0.0,0.0,0.0
21.58570885658264,4095,0.0,0.0,0.0
21.58570885658264,4095,0.0,0.0,0.0
21.60542106628418,4095,0.0,0.0,0.0
21.618524312973022,4095,0.0,0.0,0.0
21.62456774711609,4095,0.0,0.0,0.0
21.63625979423523,4095,0.0,0.0,0.0
21.645432949066162,4095,0.0,0.0,0.0
21.658185720443726,4095,0.0,0.0,0.0
21.66932487487793,4095,0.0,0.0,0.0
21.66932487487793,4095,0.0,0.0,0.0
21.6856529712677,4095,0.0,0.0,0.0
21.69549536705017,4095,0.0,0.0,0.0
21.702508211135864,4095,0.0,0.0,0.0
21.718280792236328,4095,0.0,0.0,0.0
21.724509954452515,4095,0.0,0.0,0.0
21.738579273223877,4095,0.0,0.0,0.0
21.738579273223877,4095,0.0,0.0,0.0
21.756330490112305,4095,0.0,0.0,0.0
21.768906593322754,4095,0.0,0.0,0.0
21.771273136138916,4095,0.0,0.0,0.0
21.785871505737305,4095,0.0,0.0,0.0
21.795754432678223,4095,0.0,0.0,0.0
21.802582263946533,4095,0.0,0.0,0.0
21.817286252975464,4095,0.0,0.0,0.0
21.824360370635986,4095,0.0,0.0,0.0
21.83566427230835,4095,0.0,0.0,0.0
21.83566427230835,4095,0.0,0.0,0.0
21.85547113418579,4095,0.0,0.0,0.0
21.868784189224243,4095,0.0,0.0,0.0
21.878981113433838,4095,0.0,0.0,0.0
21.888799905776978,4095,0.0,0.0,0.0
21.89192771911621,4095,0.0,0.0,0.0
21.90653347969055,4095,0.0,0.0,0.0
21.918972730636597,4095,0.0,0.0,0.0
21.928961515426636,4095,0.0,0.0,0.0
21.938889026641846,4095,0.0,0.0,0.0
21.942057847976685,4095,0.0,0.0,0.0
21.95552158355713,4095,0.0,0.0,0.0
21.968925714492798,4095,0.0,0.0,0.0
21.968925714492798,4095,0.0,0.0,0.0
21.986260890960693,4095,0.0,0.0,0.0
21.995639324188232,4095,0.0,0.0,0.0
22.00221824645996,4095,0.0,0.0,0.0
22.018741846084595,4095,0.0,0.0,0.0
22.025271892547607,4095,0.0,0.0,0.0
22.037973403930664,4095,0.0,0.0,0.0
22.04532766342163,4095,0.0,0.0,0.0
22.052136421203613,4095,0.0,0.0,0.0
22.068747758865356,4095,0.0,0.0,0.0
22.068747758865356,4095,0.0,0.0,0.0
22.085763216018677,4095,0.0,0.0,0.0
22.095715522766113,4095,0.0,0.0,0.0
22.102132320404053,4095,0.0,0.0,0.0
22.118716955184937,4095,0.0,0.0,0.0
22.12522792816162,4095,0.0,0.0,0.0
22.13894557952881,4095,0.0,0.0,0.0
22.145254135131836,4095,0.0,0.0,0.0
22.152300119400024,4095,0.0,0.0,0.0
22.16863226890564,1414,0.0,0.0,0.0
22.16863226890564,4095,0.0,0.0,0.0
22.185426712036133,4095,0.0,0.0,0.0
22.195820808410645,4095,0.0,0.0,0.0
22.202187061309814,4095,0.0,0.0,0.0
22.21889853477478,4095,0.0,0.0,0.0
22.2258358001709,4095,0.0,0.0,0.0
22.23579740524292,4095,0.0,0.0,0.0
22.24546456336975,4095,0.0,0.0,0.0
22.254313468933105,4095,0.0,0.0,0.0
22.26892614364624,4095,0.0,0.0,0.0
22.271595001220703,4095,0.0,0.0,0.0
22.28593111038208,4095,0.0,0.0,0.0
22.295600652694702,4095,0.0,0.0,0.0
22.30233359336853,4095,0.0,0.0,0.0
22.318690299987793,4095,0.0,0.0,0.0
22.32572054862976,4095,0.0,0.0,0.0
22.337385892868042,4095,0.0,0.0,0.0
22.345304012298584,4095,0.0,0.0,0.0
22.355223894119263,4095,0.0,0.0,0.0
22.368525743484497,4095,0.0,0.0,0.0
22.368525743484497,4095,0.0,0.0,0.0
22.386075973510742,4095,0.0,0.0,0.0
22.39529323577881,4095,0.0,0.0,0.0
22.402161359786987,4095,0.0,0.0,0.0
22.418529272079468,4095,0.0,0.0,0.0
22.42554759979248,4095,0.0,0.0,0.0
22.435599088668823,4095,0.0,0.0,0.0
22.446224212646484,4095,0.0,0.0,0.0
22.45220112800598,4095,0.0,0.0,0.0
22.469106435775757,4095,0.0,0.0,0.0
22.470200300216675,4095,0.0,0.0,0.0
22.486122608184814,4095,0.0,0.0,0.0
22.495655059814453,4095,0.0,0.0,0.0
22.50209403038025,4095,0.0,0.0,0.0
22.519044160842896,4095,0.0,0.0,0.0
22.525743007659912,4095,0.0,0.0,0.0
22.536057949066162,4095,0.0,0.0,0.0
22.545432329177856,4095,0.0,0.0,0.0
22.55225944519043,4095,0.0,0.0,0.0
22.56925654411316,4095,0.0,0.0,0.0
22.570303678512573,4095,0.0,0.0,0.0
22.585850954055786,4095,0.0,0.0,0.0
22.59522843360901,4095,0.0,0.0,0.0
22.60219144821167,4095,0.0,0.0,0.0
22.619166135787964,4095,0.0,0.0,0.0
22.62568497657776,4095,0.0,0.0,0.0
22.637346744537354,4095,0.0,0.0,0.0
22.637346744537354,4095,0.0,0.0,0.0
22.655930280685425,4095,0.0,0.0,0.0
22.668816804885864,4095,0.0,0.0,0.0
22.67130136489868,4095,0.0,0.0,0.0
22.685725212097168,4095,0.0,0.0,0.0
22.696088075637817,4095,0.0,0.0,0.0
22.702648878097534,4095,0.0,0.0,0.0
22.71893548965454,4095,0.0,0.0,0.0
22.72556447982788,4095,0.0,0.0,0.0
22.735848665237427,4095,0.0,0.0,0.0
22.745686292648315,4095,0.0,0.0,0.0
22.75228500366211,4095,0.0,0.0,0.0
22.768823385238647,4095,0.0,0.0,0.0
22.7724871635437,4095,0.0,0.0,0.0
22.785797834396362,4095,0.0,0.0,0.0
22.795610666275024,4095,0.0,0.0,0.0
22.802664279937744,4095,0.0,0.0,0.0
22.818766355514526,4095,0.0,0.0,0.0
22.82529640197754,4095,0.0,0.0,0.0
22.835696697235107,4095,0.0,0.0,0.0
22.84551191329956,4095,0.0,0.0,0.0
22.85456395149231,4095,0.0,0.0,0.0
22.868671417236328,4095,0.0,0.0,0.0
22.870661973953247,4095,0.0,0.0,0.0
22.885868549346924,4095,0.0,0.0,0.0
22.895264863967896,4095,0.0,0.0,0.0
22.902355194091797,4095,0.0,0.0,0.0
22.91855788230896,4095,0.0,0.0,0.0
22.92555546760559,4095,0.0,0.0,0.0
22.93601703643799,4095,0.0,0.0,0.0
22.945501804351807,4095,0.0,0.0,0.0
22.952362537384033,4095,0.0,0.0,0.0
22.96921467781067,4095,0.0,0.0,0.0
22.971710443496704,4095,0.0,0.0,0.0
22.985926866531372,4095,0.0,0.0,0.0
22.995678186416626,4095,0.0,0.0,0.0
23.002227306365967,4095,0.0,0.0,0.0
23.018877506256104,4095,0.0,0.0,0.0
23.025407314300537,4095,0.0,0.0,0.0
23.035818576812744,4095,0.0,0.0,0.0
23.04532527923584,4095,0.0,0.0,0.0
23.05211901664734,4095,0.0,0.0,0.0
23.06906533241272,4095,0.0,0.0,0.0
23.06906533241272,4095,0.0,0.0,0.0
23.08815050125122,4095,0.0,0.0,0.0
23.08815050125122,4095,0.0,0.0,0.0
23.10554337501526,4095,0.0,0.0,0.0
23.118780374526978,4095,0.0,0.0,0.0
23.12554359436035,4095,0.0,0.0,0.0
23.136221885681152,4095,0.0,0.0,0.0
23.145601987838745,4095,0.0,0.0,0.0
23.15226459503174,4095,0.0,0.0,0.0
23.16881513595581,2923,0.0,0.0,0.0
23.16881513595581,4095,0.0,0.0,0.0
23.18858027458191,2508,0.0,0.0,0.0
23.19510293006897,4095,0.0,0.0,0.0
23.202279329299927,2927,0.0,0.0,0.0
23.219025373458862,4095,0.0,0.0,0.0
23.22532033920288,4095,0.0,0.0,0.0
23.238674640655518,4095,0.0,0.0,0.0
23.248878479003906,4095,0.0,0.0,0.0
23.25819230079651,4095,0.0,0.0,0.0
23.268266201019287,4095,0.0,0.0,0.0
23.276872158050537,4095,0.0,0.0,0.0
23.28858208656311,4095,0.0,0.0,0.0
23.28858208656311,4095,0.0,0.0,0.0
23.306307077407837,4095,0.0,0.0,0.0
23.318674325942993,4095,0.0,0.0,0.0
23.325204133987427,4095,0.0,0.0,0.0
23.335962772369385,4095,0.0,0.0,0.0
23.345425367355347,4095,0.0,0.0,0.0
23.35206961631775,4095,0.0,0.0,0.0
23.368806838989258,4095,0.0,0.0,0.0
23.37006950378418,4095,0.0,0.0,0.0
23.388694524765015,4095,0.0,0.0,0.0
23.39528465270996,4095,0.0,0.0,0.0
23.402053833007812,4095,0.0,0.0,0.0
23.418705224990845,4095,0.0,0.0,0.0
23.425222396850586,4095,0.0,0.0,0.0
23.435581922531128,4095,0.0,0.0,0.0
23.445764780044556,4095,0.0,0.0,0.0
23.452229976654053,4095,0.0,0.0,0.0
23.468923330307007,4095,0.0,0.0,0.0
23.468923330307007,4095,0.0,0.0,0.0
23.485896110534668,4095,0.0,0.0,0.0
23.49569869041443,4095,0.0,0.0,0.0
23.504876375198364,4095,0.0,0.0,0.0
23.518835306167603,4095,0.0,0.0,0.0
23.52486562728882,4095,0.0,0.0,0.0
23.53589367866516,4095,0.0,0.0,0.0
23.545572519302368,4095,0.0,0.0,0.0
23.552469730377197,4095,0.0,0.0,0.0
23.568593978881836,3041,0.0,0.0,0.0
23.568593978881836,4095,0.0,0.0,0.0
23.585636138916016,1994,0.0,0.0,0.0
23.595309257507324,4095,0.0,0.0,0.0
23.605274438858032,4095,0.0,0.0,0.0
23.618625164031982,4095,0.0,0.0,0.0
23.625154733657837,4095,0.0,0.0,0.0
23.635833263397217,4095,0.0,0.0,0.0
23.645202159881592,4095,0.0,0.0,0.0
23.65221929550171,4095,0.0,0.0,0.0
23.668765544891357,3309,0.0,0.0,0.0
23.668765544891357,4095,0.0,0.0,0.0
23.685341596603394,2777,0.0,0.0,0.0
23.69577145576477,4095,0.0,0.0,0.0
23.70422887802124,2083,0.0,0.0,0.0
23.718862295150757,4095,0.0,0.0,0.0
23.724892377853394,1737,0.0,0.0,0.0
23.735817909240723,4095,0.0,0.0,0.0
23.74537706375122,1648,0.0,0.0,0.0
23.752190828323364,4095,0.0,0.0,0.0
23.768736600875854,1403,0.0,0.0,0.0
23.76964521408081,4095,0.0,0.0,0.0
23.78787922859192,1168,0.0,0.0,0.0
23.79508638381958,4095,0.0,0.0,0.0
23.802370071411133,729,0.0,0.0,0.0
23.819159030914307,4095,0.0,0.0,0.0
23.82480788230896,2085,0.0,0.0,0.0
23.835828065872192,4095,0.0,0.0,0.0
23.845360279083252,2143,0.0,0.0,0.0
23.85255265235901,4095,0.0,0.0,0.0
23.868459939956665,4095,0.0,0.0,0.0
23.868459939956665,4095,0.0,0.0,0.0
23.888689756393433,4095,0.0,0.0,0.0
23.895273685455322,4095,0.0,0.0,0.0
23.902044773101807,2703,0.0,0.0,0.0
23.918688774108887,4095,0.0,0.0,0.0
23.924918174743652,3479,0.0,0.0,0.0
23.93551206588745,4095,0.0,0.0,0.0
23.945764303207397,1183,0.0,0.0,0.0
23.952165126800537,4095,0.0,0.0,0.0
23.96910071372986,1826,0.0,0.0,0.0
23.969565629959106,4095,0.0,0.0,0.0
23.98578667640686,2534,0.0,0.0,0.0
23.98578667640686,4095,0.0,0.0,0.0
24.006147384643555,4095,0.0,0.0,0.0
24.01870346069336,4095,0.0,0.0,0.0
24.02496600151062,4095,0.0,0.0,0.0
24.035808324813843,4095,0.0,0.0,0.0
24.04562473297119,4095,0.0,0.0,0.0
24.052080869674683,4095,0.0,0.0,0.0
24.0690176486969,4095,0.0,0.0,0.0
24.06977367401123,4095,0.0,0.0,0.0
24.085774898529053,4095,0.0,0.0,0.0
24.09592843055725,4095,0.0,0.0,0.0
24.102172136306763,4095,0.0,0.0,0.0
24.118454694747925,4095,0.0,0.0,0.0
24.12553858757019,4095,0.0,0.0,0.0
24.136064052581787,4095,0.0,0.0,0.0
24.14554500579834,4095,0.0,0.0,0.0
24.15211582183838,4095,0.0,0.0,0.0
24.16883945465088,4095,0.0,0.0,0.0
24.16883945465088,4095,0.0,0.0,0.0
24.18634605407715,4095,0.0,0.0,0.0
24.19593596458435,4095,0.0,0.0,0.0
24.202229976654053,4095,0.0,0.0,0.0
24.21876072883606,4095,0.0,0.0,0.0
24.225606679916382,4095,0.0,0.0,0.0
24.237170696258545,4095,0.0,0.0,0.0
24.24558925628662,4095,0.0,0.0,0.0
24.252251148223877,4095,0.0,0.0,0.0
24.268673419952393,4095,0.0,0.0,0.0
24.268673419952393,4095,0.0,0.0,0.0
24.288544416427612,4095,0.0,0.0,0.0
24.2950119972229,4095,0.0,0.0,0.0
24.30250573158264,4095,0.0,0.0,0.0
24.318912982940674,4095,0.0,0.0,0.0
24.32592010498047,4095,0.0,0.0,0.0
24.337942838668823,4095,0.0,0.0,0.0
24.345280408859253,4095,0.0,0.0,0.0
24.35213589668274,4095,0.0,0.0,0.0
24.368462800979614,4095,0.0,0.0,0.0
24.368462800979614,4095,0.0,0.0,0.0
24.385765552520752,4095,0.0,0.0,0.0
24.39556121826172,4095,0.0,0.0,0.0
24.403423309326172,4095,0.0,0.0,0.0
24.41866660118103,4095,0.0,0.0,0.0
24.425695657730103,4095,0.0,0.0,0.0
24.435532331466675,4095,0.0,0.0,0.0
24.44572949409485,4095,0.0,0.0,0.0
24.45288395881653,4095,0.0,0.0,0.0
24.468881845474243,4095,0.0,0.0,0.0
24.468881845474243,4095,0.0,0.0,0.0
24.48570966720581,4095,0.0,0.0,0.0
24.495490312576294,4095,0.0,0.0,0.0
24.502145528793335,4095,0.0,0.0,0.0
24.518930673599243,4095,0.0,0.0,0.0
24.52596116065979,4095,0.0,0.0,0.0
24.53647470474243,4095,0.0,0.0,0.0
24.54575800895691,4095,0.0,0.0,0.0
24.554164171218872,4095,0.0,0.0,0.0
24.56891655921936,4095,0.0,0.0,0.0
24.56891655921936,4095,0.0,0.0,0.0
24.58621072769165,4095,0.0,0.0,0.0
24.595351457595825,4095,0.0,0.0,0.0
24.602076530456543,4095,0.0,0.0,0.0
24.618683576583862,4095,0.0,0.0,0.0
24.626434087753296,4095,0.0,0.0,0.0
24.63644313812256,4095,0.0,0.0,0.0
24.645174503326416,4095,0.0,0.0,0.0
24.654982328414917,4095,0.0,0.0,0.0
24.66914653778076,4095,0.0,0.0,0.0
24.66914653778076,4095,0.0,0.0,0.0
24.68590259552002,4095,0.0,0.0,0.0
24.69564938545227,4095,0.0,0.0,0.0
24.702144622802734,4095,0.0,0.0,0.0
24.718658208847046,4095,0.0,0.0,0.0
24.726688623428345,4095,0.0,0.0,0.0
24.73581838607788,4095,0.0,0.0,0.0
24.745595455169678,4095,0.0,0.0,0.0
24.75397229194641,4095,0.0,0.0,0.0
24.768721342086792,4095,0.0,0.0,0.0
24.768721342086792,4095,0.0,0.0,0.0
24.787971258163452,4095,0.0,0.0,0.0
24.794984340667725,4095,0.0,0.0,0.0
24.80224609375,4095,0.0,0.0,0.0
24.818610191345215,4095,0.0,0.0,0.0
24.826878786087036,4095,0.0,0.0,0.0
24.835806131362915,4095,0.0,0.0,0.0
24.84549117088318,4095,0.0,0.0,0.0
24.853496551513672,4095,0.0,0.0,0.0
24.868868112564087,4095,0.0,0.0,0.0
24.877540826797485,4095,0.0,0.0,0.0
24.8879234790802,4095,0.0,0.0,0.0
24.8952534198761,4095,0.0,0.0,0.0
24.902329444885254,4095,0.0,0.0,0.0
24.918806791305542,4095,0.0,0.0,0.0
24.927024364471436,4095,0.0,0.0,0.0
24.935802936553955,4095,0.0,0.0,0.0
24.94538378715515,4095,0.0,0.0,0.0
24.952065229415894,4095,0.0,0.0,0.0
24.969303131103516,4095,0.0,0.0,0.0
24.96981692314148,4095,0.0,0.0,0.0
24.98573923110962,4095,0.0,0.0,0.0
24.99575114250183,4095,0.0,0.0,0.0
25.00208854675293,4095,0.0,0.0,0.0
25.018967866897583,4095,0.0,0.0,0.0
25.027281522750854,4095,0.0,0.0,0.0
25.035810708999634,4095,0.0,0.0,0.0
25.04544234275818,4095,0.0,0.0,0.0
25.052361726760864,4095,0.0,0.0,0.0
25.068727254867554,4095,0.0,0.0,0.0
25.070276260375977,4095,0.0,0.0,0.0
25.08640480041504,4095,0.0,0.0,0.0
25.095587015151978,4095,0.0,0.0,0.0
25.10204553604126,4095,0.0,0.0,0.0
25.118688583374023,4095,0.0,0.0,0.0
25.127718687057495,4095,0.0,0.0,0.0
25.13606595993042,4095,0.0,0.0,0.0
25.14549684524536,4095,0.0,0.0,0.0
25.158726930618286,4095,0.0,0.0,0.0
25.168869495391846,4095,0.0,0.0,0.0
25.176071166992188,4095,0.0,0.0,0.0
25.185421228408813,4095,0.0,0.0,0.0
25.185421228408813,4095,0.0,0.0,0.0
25.20648193359375,4095,0.0,0.0,0.0
25.21859383583069,4095,0.0,0.0,0.0
25.22762393951416,4095,0.0,0.0,0.0
25.23564338684082,4095,0.0,0.0,0.0
25.245555639266968,4095,0.0,0.0,0.0
25.25225281715393,4095,0.0,0.0,0.0
25.2686767578125,4095,0.0,0.0,0.0
25.2686767578125,4095,0.0,0.0,0.0
25.288233518600464,4095,0.0,0.0,0.0
25.295355081558228,4095,0.0,0.0,0.0
25.301917791366577,4095,0.0,0.0,0.0
25.318844318389893,4095,0.0,0.0,0.0
25.327773094177246,4095,0.0,0.0,0.0
25.33556342124939,4095,0.0,0.0,0.0
25.33556342124939,4095,0.0,0.0,0.0
25.355205535888672,4095,0.0,0.0,0.0
25.369019031524658,4095,0.0,0.0,0.0
25.369019031524658,4095,0.0,0.0,0.0
25.387543201446533,4095,0.0,0.0,0.0
25.395020484924316,4095,0.0,0.0,0.0
25.40208911895752,4095,0.0,0.0,0.0
25.41847276687622,4095,0.0,0.0,0.0
25.427515029907227,4095,0.0,0.0,0.0
25.438321352005005,4095,0.0,0.0,0.0
25.445014715194702,4095,0.0,0.0,0.0
25.452238082885742,4095,0.0,0.0,0.0
25.46859622001648,4095,0.0,0.0,0.0
25.46859622001648,4095,0.0,0.0,0.0
25.489140272140503,4095,0.0,0.0,0.0
25.48965072631836,4095,0.0,0.0,0.0
25.50259041786194,4095,0.0,0.0,0.0
25.518834829330444,4095,0.0,0.0,0.0
25.527134656906128,4095,0.0,0.0,0.0
25.535685300827026,4095,0.0,0.0,0.0
25.535685300827026,4095,0.0,0.0,0.0
25.555708646774292,4095,0.0,0.0,0.0
25.56895089149475,4095,0.0,0.0,0.0
25.56895089149475,4095,0.0,0.0,0.0
25.588613033294678,4095,0.0,0.0,0.0
25.595027208328247,4095,0.0,0.0,0.0
25.60196352005005,4095,0.0,0.0,0.0
25.61833930015564,4095,0.0,0.0,0.0
25.626877546310425,4095,0.0,0.0,0.0
25.636109828948975,4095,0.0,0.0,0.0
25.64515519142151,4095,0.0,0.0,0.0
25.651982069015503,4095,0.0,0.0,0.0
25.668731451034546,4095,0.0,0.0,0.0
25.66974687576294,4095,0.0,0.0,0.0
25.688393115997314,4095,0.0,0.0,0.0
25.690902709960938,4095,0.0,0.0,0.0
25.706356287002563,4095,0.0,0.0,0.0
25.719130992889404,4095,0.0,0.0,0.0
25.72666072845459,4095,0.0,0.0,0.0
25.7360200881958,4095,0.0,0.0,0.0
25.745505809783936,4095,0.0,0.0,0.0
25.752102613449097,4095,0.0,0.0,0.0
25.768659830093384,4095,0.0,0.0,0.0
25.768659830093384,4095,0.0,0.0,0.0
25.78585124015808,4095,0.0,0.0,0.0
25.795491218566895,4095,0.0,0.0,0.0
25.806725025177002,4095,0.0,0.0,0.0
25.818532943725586,4095,0.0,0.0,0.0
25.82685899734497,4095,0.0,0.0,0.0
25.83555793762207,4095,0.0,0.0,0.0
25.84601855278015,4095,0.0,0.0,0.0
25.852267026901245,4095,0.0,0.0,0.0
25.86893057823181,4095,0.0,0.0,0.0
25.86893057823181,4095,0.0,0.0,0.0
25.88607954978943,4095,0.0,0.0,0.0
25.895328044891357,4095,0.0,0.0,0.0
25.902437448501587,4095,0.0,0.0,0.0
25.918798685073853,4095,0.0,0.0,0.0
25.926721334457397,4095,0.0,0.0,0.0
25.936528205871582,4095,0.0,0.0,0.0
25.945497274398804,4095,0.0,0.0,0.0
25.958131551742554,4095,0.0,0.0,0.0
25.96890950202942,4095,0.0,0.0,0.0
25.974124431610107,4095,0.0,0.0,0.0
25.98628878593445,4095,0.0,0.0,0.0
25.9957058429718,4095,0.0,0.0,0.0
26.002036333084106,4095,0.0,0.0,0.0
26.019108057022095,4095,0.0,0.0,0.0
26.026735067367554,4095,0.0,0.0,0.0
26.03604221343994,4095,0.0,0.0,0.0
26.04576802253723,4095,0.0,0.0,0.0
26.05198884010315,3870,0.0,0.0,0.0
26.068496227264404,4095,0.0,0.0,0.0
26.068496227264404,3396,0.0,0.0,0.0
26.085955381393433,4095,0.0,0.0,0.0
26.09536647796631,3243,0.0,0.0,0.0
26.10187530517578,4095,0.0,0.0,0.0
26.11854386329651,3599,0.0,0.0,0.0
26.126703023910522,4095,0.0,0.0,0.0
26.135539770126343,3222,0.0,0.0,0.0
26.145451307296753,4095,0.0,0.0,0.0
26.152010917663574,2757,0.0,0.0,0.0
26.169144868850708,4095,0.0,0.0,0.0
26.169144868850708,2791,0.0,0.0,0.0
26.185868501663208,4095,0.0,0.0,0.0
26.19584560394287,2642,0.0,0.0,0.0
26.20213508605957,4095,0.0,0.0,0.0
26.21870231628418,2320,0.0,0.0,0.0
26.226732969284058,4095,0.0,0.0,0.0
26.237411499023438,2307,0.0,0.0,0.0
26.245388507843018,4095,0.0,0.0,0.0
26.252043962478638,1831,0.0,0.0,0.0
26.26866364479065,4095,0.0,0.0,0.0
26.26866364479065,1407,0.0,0.0,0.0
26.285793781280518,4095,0.0,0.0,0.0
26.29609704017639,1123,0.0,0.0,0.0
26.305477142333984,4095,0.0,0.0,0.0
26.31872248649597,1106,0.0,0.0,0.0
26.32725238800049,4095,0.0,0.0,0.0
26.337939262390137,762,0.0,0.0,0.0
26.345187425613403,4095,0.0,0.0,0.0
26.352229356765747,507,0.0,0.0,0.0
26.36837100982666,4095,0.0,0.0,0.0
26.36837100982666,493,0.0,0.0,0.0
26.386104822158813,4095,0.0,0.0,0.0
26.395481824874878,322,0.0,0.0,0.0
26.40223979949951,4095,0.0,0.0,0.0
26.418770790100098,332,0.0,0.0,0.0
26.427314281463623,4095,0.0,0.0,0.0
26.43831515312195,402,0.0,0.0,0.0
26.445244312286377,4095,0.0,0.0,0.0
26.452070951461792,280,0.0,0.0,0.0
26.46913743019104,4095,0.0,0.0,0.0
26.47011113166809,195,0.0,0.0,0.0
26.486642360687256,4095,0.0,0.0,0.0
26.495564699172974,277,0.0,0.0,0.0
26.502010345458984,4095,0.0,0.0,0.0
26.518673181533813,317,0.0,0.0,0.0
26.527205228805542,4095,0.0,0.0,0.0
26.538877725601196,373,0.0,0.0,0.0
26.54506516456604,4095,0.0,0.0,0.0
26.55194401741028,699,0.0,0.0,0.0
26.568634271621704,4095,0.0,0.0,0.0
26.568634271621704,709,0.0,0.0,0.0
26.585954904556274,4095,0.0,0.0,0.0
26.59527349472046,794,0.0,0.0,0.0
26.601983308792114,4095,0.0,0.0,0.0
26.618931531906128,1088,0.0,0.0,0.0
26.62696123123169,4095,0.0,0.0,0.0
26.63811683654785,1515,0.0,0.0,0.0
26.64541506767273,4095,0.0,0.0,0.0
26.652100086212158,1757,0.0,0.0,0.0
26.668762683868408,4095,0.0,0.0,0.0
26.668762683868408,1984,0.0,0.0,0.0
26.68650984764099,4095,0.0,0.0,0.0
26.695443153381348,2412,0.0,0.0,0.0
26.702127695083618,4095,0.0,0.0,0.0
26.718934535980225,2576,0.0,0.0,0.0
26.726945400238037,4095,0.0,0.0,0.0
26.738804817199707,2466,0.0,0.0,0.0
26.745307683944702,4095,0.0,0.0,0.0
26.752012252807617,2703,0.0,0.0,0.0
26.768982648849487,4095,0.0,0.0,0.0
26.769500017166138,3376,0.0,0.0,0.0
26.785786390304565,4095,0.0,0.0,0.0
26.7955424785614,4095,0.0,0.0,0.0
26.802107095718384,4095,0.0,0.0,0.0
26.819196939468384,3366,0.0,0.0,0.0
26.827341556549072,4095,0.0,0.0,0.0
26.838932275772095,4095,0.0,0.0,0.0
26.845271348953247,4095,0.0,0.0,0.0
26.852128982543945,4095,0.0,0.0,0.0
26.8686261177063,4095,0.0,0.0,0.0
26.8686261177063,4095,0.0,0.0,0.0
26.88537883758545,4095,0.0,0.0,0.0
26.895779609680176,4095,0.0,0.0,0.0
26.902153730392456,4095,0.0,0.0,0.0
26.918769121170044,4095,0.0,0.0,0.0
26.927298307418823,4095,0.0,0.0,0.0
26.938135862350464,4095,0.0,0.0,0.0
26.9452006816864,4095,0.0,0.0,0.0
26.952289581298828,4095,0.0,0.0,0.0
26.968793153762817,4095,0.0,0.0,0.0
26.968793153762817,4095,0.0,0.0,0.0
26.98865532875061,4095,0.0,0.0,0.0
26.99443030357361,4095,0.0,0.0,0.0
27.00196409225464,4095,0.0,0.0,0.0
27.018986463546753,4095,0.0,0.0,0.0
27.027016162872314,4095,0.0,0.0,0.0
27.037842512130737,4095,0.0,0.0,0.0
27.045229196548462,4095,0.0,0.0,0.0
27.051923751831055,4095,0.0,0.0,0.0
27.06893038749695,4095,0.0,0.0,0.0
27.06893038749695,4095,0.0,0.0,0.0
27.085837364196777,4095,0.0,0.0,0.0
27.095327854156494,4095,0.0,0.0,0.0
27.101945877075195,4095,0.0,0.0,0.0
27.11873435974121,4095,0.0,0.0,0.0
27.126792669296265,4095,0.0,0.0,0.0
27.138989686965942,4095,0.0,0.0,0.0
27.145052671432495,4095,0.0,0.0,0.0
27.15220856666565,4095,0.0,0.0,0.0
27.16844654083252,4095,0.0,0.0,0.0
27.16844654083252,4095,0.0,0.0,0.0
27.185153245925903,4095,0.0,0.0,0.0
27.19575834274292,4095,0.0,0.0,0.0
27.201997756958008,4095,0.0,0.0,0.0
27.219130516052246,4095,0.0,0.0,0.0
27.22666072845459,4095,0.0,0.0,0.0
27.23857069015503,4095,0.0,0.0,0.0
27.24508810043335,4095,0.0,0.0,0.0
27.252048015594482,4095,0.0,0.0,0.0
27.268572330474854,4095,0.0,0.0,0.0
27.268572330474854,4095,0.0,0.0,0.0
27.286564588546753,4095,0.0,0.0,0.0
27.295408248901367,4095,0.0,0.0,0.0
27.302178382873535,4095,0.0,0.0,0.0
27.3187358379364,4095,0.0,0.0,0.0
27.32851815223694,4095,0.0,0.0,0.0
27.338488340377808,4095,0.0,0.0,0.0
27.34157943725586,4095,0.0,0.0,0.0
27.35689425468445,4095,0.0,0.0,0.0
27.368578672409058,4095,0.0,0.0,0.0
27.368578672409058,4095,0.0,0.0,0.0
27.386295318603516,4095,0.0,0.0,0.0
27.39546775817871,4095,0.0,0.0,0.0
27.402111291885376,4095,0.0,0.0,0.0
27.41835331916809,4095,0.0,0.0,0.0
27.426393508911133,4095,0.0,0.0,0.0
27.435486793518066,4095,0.0,0.0,0.0
27.445719003677368,4095,0.0,0.0,0.0
27.453370809555054,4095,0.0,0.0,0.0
27.46850299835205,4095,0.0,0.0,0.0
27.46850299835205,4095,0.0,0.0,0.0
27.48579740524292,4095,0.0,0.0,0.0
27.49521231651306,4095,0.0,0.0,0.0
27.50429058074951,4095,0.0,0.0,0.0
27.518465757369995,4095,0.0,0.0,0.0
27.5264949798584,4095,0.0,0.0,0.0
27.53682851791382,4095,0.0,0.0,0.0
27.545297861099243,4095,0.0,0.0,0.0
27.551696300506592,4095,0.0,0.0,0.0
27.568750143051147,4095,0.0,0.0,0.0
27.56981372833252,4095,0.0,0.0,0.0
27.585841178894043,4095,0.0,0.0,0.0
27.595283269882202,4095,0.0,0.0,0.0
27.601861238479614,4095,0.0,0.0,0.0
27.61844754219055,4095,0.0,0.0,0.0
27.626477241516113,4095,0.0,0.0,0.0
27.63561487197876,4095,0.0,0.0,0.0
27.645468711853027,4095,0.0,0.0,0.0
27.651917934417725,4095,0.0,0.0,0.0
27.668538570404053,4095,0.0,0.0,0.0
27.670523643493652,4095,0.0,0.0,0.0
27.685853004455566,4095,0.0,0.0,0.0
27.695502519607544,4095,0.0,0.0,0.0
27.702579259872437,4095,0.0,0.0,0.0
27.71849226951599,4095,0.0,0.0,0.0
27.726522207260132,4095,0.0,0.0,0.0
27.735809564590454,4095,0.0,0.0,0.0
27.74599266052246,4095,0.0,0.0,0.0
27.75205636024475,4095,0.0,0.0,0.0
27.768545389175415,4095,0.0,0.0,0.0
27.77054238319397,4095,0.0,0.0,0.0
27.78573775291443,4095,0.0,0.0,0.0
27.795637607574463,4095,0.0,0.0,0.0
27.80205202102661,4095,0.0,0.0,0.0
27.818468809127808,4095,0.0,0.0,0.0
27.826234340667725,4095,0.0,0.0,0.0
27.8366756439209,4095,0.0,0.0,0.0
27.845181703567505,4095,0.0,0.0,0.0
27.852092504501343,4095,0.0,0.0,0.0
27.86851954460144,4095,0.0,0.0,0.0
27.870484590530396,4095,0.0,0.0,0.0
27.886054515838623,4095,0.0,0.0,0.0
27.89529514312744,4095,0.0,0.0,0.0
27.90207815170288,4095,0.0,0.0,0.0
27.918614387512207,4095,0.0,0.0,0.0
27.926145315170288,4095,0.0,0.0,0.0
27.935345888137817,4095,0.0,0.0,0.0
27.945704460144043,4095,0.0,0.0,0.0
27.95223045349121,4095,0.0,0.0,0.0
27.968342065811157,4095,0.0,0.0,0.0
27.968342065811157,4095,0.0,0.0,0.0
27.98732328414917,4095,0.0,0.0,0.0
27.99525499343872,4095,0.0,0.0,0.0
28.002041578292847,4095,0.0,0.0,0.0
28.019141912460327,4095,0.0,0.0,0.0
28.026811361312866,4095,0.0,0.0,0.0
28.035520553588867,4095,0.0,0.0,0.0
28.045628309249878,4095,0.0,0.0,0.0
28.051783084869385,4095,0.0,0.0,0.0
28.068424940109253,4095,0.0,0.0,0.0
28.068424940109253,4095,0.0,0.0,0.0
28.087714195251465,4095,0.0,0.0,0.0
28.095118284225464,4095,0.0,0.0,0.0
28.10191297531128,4095,0.0,0.0,0.0
28.118516206741333,4095,0.0,0.0,0.0
28.126545906066895,4095,0.0,0.0,0.0
28.135627031326294,4095,0.0,0.0,0.0
28.14523720741272,4095,0.0,0.0,0.0
28.152007341384888,4095,0.0,0.0,0.0
28.168835639953613,4095,0.0,0.0,0.0
28.178901433944702,4095,0.0,0.0,0.0
28.1889750957489,4095,0.0,0.0,0.0
28.192069053649902,4095,0.0,0.0,0.0
28.206685304641724,4095,0.0,0.0,0.0
28.219105005264282,4095,0.0,0.0,0.0
28.226634740829468,4095,0.0,0.0,0.0
28.236281156539917,4095,0.0,0.0,0.0
28.236281156539917,4095,0.0,0.0,0.0
28.252691507339478,4095,0.0,0.0,0.0
28.26874613761902,4095,0.0,0.0,0.0
28.269553899765015,4095,0.0,0.0,0.0
28.288634538650513,4095,0.0,0.0,0.0
28.288634538650513,4095,0.0,0.0,0.0
28.308932065963745,4095,0.0,0.0,0.0
28.31851100921631,4095,0.0,0.0,0.0
28.32654309272766,4095,0.0,0.0,0.0
28.337090492248535,4095,0.0,0.0,0.0
28.345996141433716,4095,0.0,0.0,0.0
28.351996898651123,4095,0.0,0.0,0.0
28.368479251861572,4095,0.0,0.0,0.0
28.368479251861572,4095,0.0,0.0,0.0
28.388808250427246,4095,0.0,0.0,0.0
28.39521336555481,4095,0.0,0.0,0.0
28.40855598449707,4095,0.0,0.0,0.0
28.418397903442383,4095,0.0,0.0,0.0
28.426450729370117,4095,0.0,0.0,0.0
28.435688972473145,4095,0.0,0.0,0.0
28.44564151763916,4095,0.0,0.0,0.0
28.452235221862793,4095,0.0,0.0,0.0
28.468901872634888,4095,0.0,0.0,0.0
28.468901872634888,4095,0.0,0.0,0.0
28.48557996749878,4095,0.0,0.0,0.0
28.49557399749756,4095,0.0,0.0,0.0
28.508323907852173,4095,0.0,0.0,0.0
28.51856517791748,4095,0.0,0.0,0.0
28.52657675743103,4095,0.0,0.0,0.0
28.53705883026123,4095,0.0,0.0,0.0
28.54528021812439,4095,0.0,0.0,0.0
28.552093982696533,4095,0.0,0.0,0.0
28.568360567092896,4095,0.0,0.0,0.0
28.568360567092896,4095,0.0,0.0,0.0
28.5855610370636,4095,0.0,0.0,0.0
28.595693111419678,4095,0.0,0.0,0.0
28.608195543289185,4095,0.0,0.0,0.0
28.618547677993774,4095,0.0,0.0,0.0
28.626577138900757,4095,0.0,0.0,0.0
28.636425018310547,4095,0.0,0.0,0.0
28.645587682724,4095,0.0,0.0,0.0
28.651889324188232,4095,0.0,0.0,0.0
28.6684787273407,4095,0.0,0.0,0.0
28.6684787273407,4095,0.0,0.0,0.0
28.6885666847229,4095,0.0,0.0,0.0
28.695480823516846,4095,0.0,0.0,0.0
28.70783567428589,4095,0.0,0.0,0.0
28.718698740005493,4095,0.0,0.0,0.0
28.726228952407837,4095,0.0,0.0,0.0
28.736737728118896,4095,0.0,0.0,0.0
28.74548029899597,4095,0.0,0.0,0.0
28.751835107803345,4095,0.0,0.0,0.0
28.768452167510986,4095,0.0,0.0,0.0
28.768452167510986,4095,0.0,0.0,0.0
28.785640001296997,4095,0.0,0.0,0.0
28.79579758644104,4095,0.0,0.0,0.0
28.808116674423218,4095,0.0,0.0,0.0
28.81893277168274,4095,0.0,0.0,0.0
28.826778888702393,4095,0.0,0.0,0.0
28.838068962097168,4095,0.0,0.0,0.0
28.845330238342285,4095,0.0,0.0,0.0
28.851933240890503,4095,0.0,0.0,0.0
28.868502378463745,4095,0.0,0.0,0.0
28.868502378463745,4095,0.0,0.0,0.0
28.885987758636475,4095,0.0,0.0,0.0
28.896175861358643,4095,0.0,0.0,0.0
28.908045530319214,4095,0.0,0.0,0.0
28.918769121170044,4095,0.0,0.0,0.0
28.926852464675903,4095,0.0,0.0,0.0
28.9350368976593,4095,0.0,0.0,0.0
28.945399522781372,3681,0.0,0.0,0.0
28.95193839073181,4095,0.0,0.0,0.0
28.96862506866455,2183,0.0,0.0,0.0
28.96862506866455,4095,0.0,0.0,0.0
28.985585927963257,1159,0.0,0.0,0.0
28.99553680419922,4095,0.0,0.0,0.0
29.00796866416931,711,0.0,0.0,0.0
29.019172191619873,4095,0.0,0.0,0.0
29.027267932891846,257,0.0,0.0,0.0
29.035614252090454,4095,0.0,0.0,0.0
29.0457923412323,182,0.0,0.0,0.0
29.054365158081055,4095,0.0,0.0,0.0
29.0685133934021,0,0.0,0.0,0.0
29.0685133934021,4095,0.0,0.0,0.0
29.08554482460022,0,0.0,0.0,0.0
29.095464944839478,4095,0.0,0.0,0.0
29.107785940170288,0,0.0,0.0,0.0
29.118852376937866,4095,0.0,0.0,0.0
29.12693214416504,0,0.0,0.0,0.0
29.13664698600769,4095,0.0,0.0,0.0
29.14549231529236,0,0.0,0.0,0.0
29.15202307701111,4095,0.0,0.0,0.0
29.168518543243408,0,0.0,0.0,0.0
29.168518543243408,4095,0.0,0.0,0.0
29.185356378555298,0,0.0,0.0,0.0
29.195709705352783,4095,0.0,0.0,0.0
29.20747137069702,0,0.0,0.0,0.0
29.218623638153076,4095,0.0,0.0,0.0
29.226696729660034,0,0.0,0.0,0.0
29.235732078552246,4095,0.0,0.0,0.0
29.245505571365356,0,0.0,0.0,0.0
29.251824855804443,4095,0.0,0.0,0.0
29.26843547821045,0,0.0,0.0,0.0
29.26843547821045,4095,0.0,0.0,0.0
29.28643035888672,0,0.0,0.0,0.0
29.29555368423462,4095,0.0,0.0,0.0
29.307183980941772,0,0.0,0.0,0.0
29.318816661834717,4095,0.0,0.0,0.0
29.327024221420288,12,0.0,0.0,0.0
29.338228702545166,4095,0.0,0.0,0.0
29.345133066177368,208,0.0,0.0,0.0
29.351837158203125,4095,0.0,0.0,0.0
29.368464946746826,386,0.0,0.0,0.0
29.368464946746826,4095,0.0,0.0,0.0
29.386013507843018,487,0.0,0.0,0.0
29.39586067199707,4095,0.0,0.0,0.0
29.407054662704468,576,0.0,0.0,0.0
29.418710231781006,4095,0.0,0.0,0.0
29.426990509033203,897,0.0,0.0,0.0
29.435279607772827,4095,0.0,0.0,0.0
29.446131706237793,893,0.0,0.0,0.0
29.45218539237976,4095,0.0,0.0,0.0
29.468547344207764,1010,0.0,0.0,0.0
29.468547344207764,4095,0.0,0.0,0.0
29.48568296432495,1187,0.0,0.0,0.0
29.49573063850403,4095,0.0,0.0,0.0
29.507096529006958,1005,0.0,0.0,0.0
29.518681526184082,4095,0.0,0.0,0.0
29.5272114276886,1136,0.0,0.0,0.0
29.538360118865967,4095,0.0,0.0,0.0
29.545839071273804,1200,0.0,0.0,0.0
29.552406072616577,4095,0.0,0.0,0.0
29.56918740272522,1135,0.0,0.0,0.0
29.570861339569092,4095,0.0,0.0,0.0
29.585779666900635,974,0.0,0.0,0.0
29.595343112945557,4095,0.0,0.0,0.0
29.60677933692932,848,0.0,0.0,0.0
29.618331909179688,4095,0.0,0.0,0.0
29.626862049102783,739,0.0,0.0,0.0
29.63785219192505,4095,0.0,0.0,0.0
29.645190477371216,426,0.0,0.0,0.0
29.651853322982788,4095,0.0,0.0,0.0
29.668315172195435,89,0.0,0.0,0.0
29.668315172195435,4095,0.0,0.0,0.0
29.68662142753601,40,0.0,0.0,0.0
29.69546675682068,4095,0.0,0.0,0.0
29.70646834373474,0,0.0,0.0,0.0
29.718581438064575,4095,0.0,0.0,0.0
29.726611137390137,0,0.0,0.0,0.0
29.735791444778442,4095,0.0,0.0,0.0
29.74563694000244,0,0.0,0.0,0.0
29.752809524536133,4095,0.0,0.0,0.0
29.768505096435547,260,0.0,0.0,0.0
29.768505096435547,4095,0.0,0.0,0.0
29.785457611083984,368,0.0,0.0,0.0
29.79569363594055,4095,0.0,0.0,0.0
29.80616807937622,743,0.0,0.0,0.0
29.818382501602173,4095,0.0,0.0,0.0
29.826892137527466,944,0.0,0.0,0.0
29.83899188041687,4095,0.0,0.0,0.0
29.84548258781433,944,0.0,0.0,0.0
29.853989839553833,4095,0.0,0.0,0.0
29.868442058563232,1127,0.0,0.0,0.0
29.868442058563232,4095,0.0,0.0,0.0
29.88601326942444,2014,0.0,0.0,0.0
29.89537024497986,4095,0.0,0.0,0.0
29.905884742736816,2727,0.0,0.0,0.0
29.9185049533844,4095,0.0,0.0,0.0
29.92653465270996,3181,0.0,0.0,0.0
29.936631202697754,4095,0.0,0.0,0.0
29.945802450180054,3590,0.0,0.0,0.0
29.95203948020935,4095,0.0,0.0,0.0
29.96893310546875,4095,0.0,0.0,0.0
29.970420598983765,4095,0.0,0.0,0.0
29.98591136932373,4095,0.0,0.0,0.0
29.995583295822144,4095,0.0,0.0,0.0
